1602;1607;1612;1617;1622;1627;1632;1637;1642;1647;1652;1657;1662;1667;1672;1677;1682;1687;1692;1697;1703;1708;1713;1718;1723;1728;1733;1738;1743;1748;1753;1758;1763;1768;1773;1778;1783;1788;1793;1798;1803;1808;1813;1818;1823;1828;1833;1838;1843;1848;1853;1858;1863;1868;1873;1878;1883;1888;1893;1898;1904;1909;1914;1919;1924;1929;1934;1939;1944;1949;1954;1959;1964;1969;1974;1979;1984;1989;1994;1999;2004;2009;2014;2019;2024;2029;2034;2039;2044;2049;2054;2059;2064;2069;2074;2079;2084;2089;2094;2100
0.829034;0.838679;0.840403;0.848950;0.853417;0.858877;0.856421;0.868505;0.868796;0.872023;0.877244;0.876074;0.881559;0.886158;0.885213;0.890021;0.889134;0.887376;0.887005;0.884820;0.881984;0.881000;0.882710;0.880186;0.878646;0.873022;0.866625;0.863222;0.854985;0.847774;0.838977;0.835956;0.826504;0.821601;0.812277;0.800861;0.798624;0.789363;0.785301;0.778146;0.764792;0.756160;0.743961;0.737998;0.728768;0.724390;0.707678;0.706197;0.694137;0.687643;0.679585;0.667199;0.662013;0.655806;0.650235;0.641522;0.629305;0.621636;0.617772;0.607774;0.606679;0.597388;0.591311;0.584942;0.581215;0.576568;0.567980;0.566230;0.560215;0.556728;0.551978;0.551426;0.543148;0.540282;0.540250;0.537022;0.530193;0.531947;0.526626;0.526549;0.525811;0.520809;0.514220;0.514902;0.512348;0.509080;0.514147;0.508371;0.510761;0.510756;0.507215;0.505561;0.506590;0.505685;0.504683;0.505512;0.506586;0.502956;0.502064;0.498982
0.697526;0.696125;0.702223;0.705630;0.708252;0.713136;0.715100;0.717254;0.720870;0.725319;0.725155;0.730713;0.736106;0.735091;0.734126;0.736787;0.740052;0.735331;0.735168;0.737519;0.735050;0.739660;0.731186;0.737043;0.732112;0.732257;0.726668;0.727486;0.721371;0.725553;0.716939;0.714480;0.710824;0.700459;0.700127;0.700499;0.695678;0.688947;0.683905;0.678267;0.675650;0.666883;0.668847;0.662107;0.655265;0.651144;0.645497;0.638284;0.633770;0.628358;0.622520;0.616867;0.616319;0.608910;0.606049;0.595597;0.596878;0.588990;0.582455;0.582443;0.579203;0.572883;0.570163;0.567854;0.567411;0.558489;0.559368;0.551940;0.552628;0.549500;0.548148;0.538770;0.539075;0.539182;0.531814;0.532771;0.532820;0.528052;0.528490;0.529085;0.522973;0.518798;0.518413;0.517269;0.519593;0.519852;0.513949;0.511685;0.509383;0.508032;0.509833;0.502808;0.503600;0.505603;0.501637;0.502638;0.499144;0.497597;0.499851;0.497798
0.659070;0.661474;0.669792;0.675407;0.676661;0.685196;0.689189;0.692674;0.686881;0.697757;0.701866;0.707044;0.712448;0.717692;0.723011;0.726881;0.733723;0.739582;0.736947;0.750239;0.748372;0.753526;0.758086;0.763081;0.764202;0.769915;0.775629;0.778244;0.784845;0.787298;0.785821;0.789475;0.796221;0.800479;0.803371;0.811665;0.807693;0.817552;0.817798;0.818487;0.822205;0.829725;0.828282;0.825618;0.829418;0.833359;0.834676;0.832448;0.835739;0.836363;0.838868;0.836539;0.837289;0.836139;0.831892;0.834639;0.833838;0.830937;0.830448;0.824228;0.820677;0.819657;0.814426;0.805249;0.802429;0.806033;0.795208;0.787850;0.785610;0.784606;0.776671;0.768301;0.761773;0.755978;0.750248;0.741467;0.736832;0.728284;0.721575;0.712552;0.708651;0.701631;0.694754;0.684200;0.678118;0.670114;0.660959;0.655646;0.646601;0.639928;0.637172;0.627885;0.616241;0.615674;0.608832;0.600433;0.593902;0.590913;0.588211;0.580735
0.704268;0.706589;0.703619;0.705040;0.702975;0.704986;0.703384;0.702242;0.698700;0.702887;0.705244;0.702538;0.705091;0.703478;0.704052;0.708618;0.704373;0.700250;0.702633;0.705968;0.706947;0.707681;0.710540;0.710293;0.707071;0.709807;0.712429;0.713475;0.714906;0.715470;0.716115;0.711993;0.716079;0.716905;0.719062;0.721468;0.727413;0.728797;0.720755;0.720711;0.728555;0.729728;0.730893;0.726475;0.728237;0.732130;0.734193;0.734019;0.734528;0.736273;0.737042;0.732954;0.733517;0.735676;0.727905;0.731306;0.729976;0.727622;0.726160;0.724848;0.721869;0.722875;0.715520;0.714091;0.712569;0.710571;0.710341;0.704481;0.701835;0.689283;0.689969;0.687728;0.683261;0.678571;0.674210;0.671373;0.663667;0.659876;0.652775;0.648325;0.641319;0.637763;0.632874;0.627352;0.627028;0.620652;0.614230;0.609596;0.605552;0.598700;0.592849;0.588507;0.587461;0.584446;0.576653;0.569378;0.567838;0.568044;0.560451;0.559024
0.687861;0.690195;0.695097;0.700472;0.703399;0.708320;0.713193;0.714279;0.718832;0.722401;0.725969;0.730628;0.736271;0.742426;0.746126;0.746381;0.752639;0.750544;0.755502;0.761043;0.762683;0.764169;0.770633;0.772670;0.776192;0.775918;0.778046;0.786248;0.784217;0.789670;0.789436;0.792079;0.790730;0.791670;0.797353;0.798006;0.797343;0.798579;0.800660;0.802422;0.803668;0.803401;0.803074;0.807332;0.805665;0.802443;0.796889;0.802476;0.803336;0.799145;0.799924;0.797482;0.799675;0.799929;0.793095;0.791136;0.793004;0.785596;0.781134;0.780759;0.777640;0.771464;0.768162;0.760999;0.766013;0.759691;0.753043;0.741641;0.739197;0.741351;0.729348;0.725977;0.721698;0.717511;0.710250;0.707035;0.695065;0.690113;0.685344;0.678344;0.673825;0.665828;0.661911;0.652333;0.647720;0.640385;0.630097;0.628870;0.623541;0.620892;0.613798;0.600336;0.599525;0.593597;0.589136;0.587002;0.582313;0.580057;0.569353;0.564538
0.608384;0.615362;0.616019;0.616209;0.617613;0.623398;0.625309;0.626119;0.629727;0.633777;0.636074;0.637820;0.644515;0.644334;0.650257;0.653182;0.652450;0.656182;0.660190;0.664428;0.667257;0.666826;0.674280;0.672473;0.679710;0.681183;0.682043;0.691747;0.694552;0.694262;0.698194;0.702549;0.698509;0.706006;0.703294;0.705523;0.711055;0.714193;0.710687;0.715367;0.718301;0.719935;0.721458;0.723666;0.726379;0.728259;0.724758;0.726534;0.729745;0.732731;0.722830;0.725671;0.729625;0.728869;0.726357;0.725563;0.729174;0.718132;0.727608;0.721972;0.720208;0.719019;0.713433;0.707290;0.711571;0.711351;0.703606;0.699522;0.693789;0.699210;0.686099;0.682111;0.675028;0.677890;0.668881;0.665203;0.660406;0.652973;0.649649;0.642513;0.637614;0.637749;0.627867;0.625396;0.620711;0.615053;0.611796;0.609576;0.596825;0.597700;0.591315;0.587504;0.581074;0.575288;0.575620;0.570363;0.563660;0.559780;0.558790;0.555104
0.821778;0.819645;0.822858;0.816777;0.816925;0.812603;0.813486;0.811248;0.810546;0.806107;0.804115;0.801877;0.795116;0.793912;0.790543;0.790805;0.787145;0.778994;0.777905;0.775300;0.771482;0.765702;0.759326;0.760332;0.754098;0.743984;0.742760;0.740310;0.731628;0.727810;0.718020;0.715979;0.711617;0.707764;0.701836;0.698249;0.686761;0.685130;0.672212;0.675881;0.667088;0.659029;0.657174;0.652065;0.650328;0.641620;0.632918;0.628150;0.625167;0.617742;0.611748;0.606672;0.603349;0.594605;0.596848;0.594325;0.581086;0.581320;0.573653;0.574109;0.569801;0.566787;0.560008;0.559356;0.558223;0.552788;0.554359;0.548057;0.543958;0.543686;0.539341;0.540312;0.533276;0.532334;0.534707;0.526673;0.528456;0.526743;0.521870;0.525021;0.525361;0.516850;0.519512;0.520418;0.521435;0.516609;0.514976;0.516880;0.515210;0.514321;0.509087;0.513247;0.512282;0.508369;0.510073;0.510911;0.511293;0.506095;0.506917;0.510122
0.800259;0.787139;0.783291;0.776616;0.773876;0.762227;0.759572;0.751981;0.746531;0.733203;0.731092;0.728877;0.722369;0.712603;0.711428;0.701879;0.693835;0.682428;0.679772;0.676732;0.671860;0.665459;0.660188;0.652953;0.652132;0.646336;0.638608;0.631786;0.621874;0.630142;0.621707;0.612795;0.608640;0.604569;0.603828;0.601403;0.592419;0.587698;0.583649;0.578516;0.576390;0.573958;0.566555;0.566907;0.559010;0.558381;0.559741;0.554022;0.550851;0.542934;0.544801;0.540643;0.536996;0.533853;0.531997;0.532658;0.530311;0.530217;0.527078;0.524921;0.527575;0.524777;0.522197;0.512383;0.516065;0.513858;0.512775;0.513096;0.511239;0.511051;0.507414;0.504632;0.506207;0.506053;0.508561;0.500688;0.507532;0.507091;0.501851;0.504178;0.503289;0.502429;0.498706;0.503931;0.500033;0.496993;0.501036;0.501757;0.498564;0.497661;0.501440;0.493415;0.498351;0.499108;0.495000;0.502106;0.496064;0.497316;0.503281;0.492513
0.755281;0.760287;0.769976;0.772681;0.784567;0.790643;0.796047;0.804119;0.811228;0.815334;0.821242;0.828273;0.829588;0.837794;0.838068;0.845062;0.849614;0.851046;0.850662;0.860239;0.856520;0.856552;0.856844;0.857751;0.858472;0.857963;0.858534;0.858818;0.854003;0.853859;0.846816;0.849977;0.846240;0.839065;0.836979;0.832441;0.825201;0.822762;0.818140;0.812198;0.808433;0.798903;0.795277;0.791295;0.784221;0.779610;0.769198;0.766973;0.761687;0.754442;0.748943;0.736758;0.734453;0.727219;0.723648;0.710918;0.711304;0.707840;0.695594;0.693509;0.690728;0.681444;0.673402;0.665816;0.661581;0.659413;0.650132;0.647389;0.642250;0.639403;0.634223;0.632071;0.622301;0.621013;0.614403;0.608497;0.605877;0.599180;0.597560;0.592498;0.587845;0.583394;0.582073;0.575415;0.573311;0.574274;0.567012;0.560074;0.556550;0.553008;0.552413;0.550040;0.547820;0.541290;0.541823;0.536177;0.536896;0.535930;0.530701;0.526202
0.775837;0.773843;0.764139;0.759600;0.759355;0.752796;0.748604;0.743397;0.736314;0.733911;0.727680;0.724746;0.718164;0.715521;0.714283;0.712523;0.703031;0.698374;0.695052;0.696876;0.690966;0.682573;0.681762;0.677971;0.674191;0.664286;0.656319;0.658716;0.646077;0.645190;0.644362;0.639491;0.630138;0.628223;0.624722;0.617856;0.618849;0.614633;0.607822;0.605388;0.596365;0.596010;0.587772;0.580299;0.578838;0.575914;0.576559;0.571322;0.569298;0.564011;0.559014;0.558193;0.555553;0.549802;0.542970;0.547267;0.543755;0.541001;0.536125;0.535126;0.531530;0.527793;0.531532;0.529707;0.523582;0.523914;0.523442;0.515881;0.519243;0.518460;0.511996;0.512060;0.516167;0.513187;0.509195;0.511669;0.509562;0.508371;0.504381;0.511972;0.504479;0.504187;0.506737;0.505613;0.494375;0.501046;0.501455;0.499098;0.499474;0.497527;0.498502;0.506159;0.496285;0.494957;0.498625;0.493659;0.504099;0.497353;0.500011;0.500329
0.800196;0.806205;0.816636;0.823149;0.829073;0.833709;0.844318;0.846969;0.855461;0.866981;0.866218;0.868801;0.873121;0.876227;0.880371;0.884341;0.885482;0.886976;0.884902;0.887513;0.882953;0.885603;0.888213;0.881876;0.879828;0.878830;0.878553;0.869895;0.868932;0.865363;0.861301;0.849495;0.846853;0.842744;0.836233;0.826875;0.819451;0.822835;0.804932;0.798794;0.788455;0.777379;0.770292;0.766953;0.756648;0.752135;0.743758;0.733636;0.728007;0.715182;0.705670;0.701772;0.692362;0.687137;0.678973;0.675295;0.664377;0.655941;0.652252;0.645382;0.630609;0.632167;0.621330;0.618640;0.607778;0.609068;0.600658;0.595764;0.594223;0.586912;0.583944;0.576286;0.573083;0.570300;0.567236;0.562262;0.556531;0.552951;0.541804;0.542162;0.545722;0.539237;0.540185;0.535166;0.535181;0.531218;0.528712;0.526285;0.520516;0.520922;0.517080;0.518665;0.517441;0.514354;0.515722;0.506029;0.510029;0.507389;0.506168;0.509873
0.801772;0.799893;0.795771;0.789226;0.787209;0.779971;0.780256;0.772549;0.772086;0.769011;0.762711;0.763038;0.758482;0.754663;0.749868;0.738900;0.736500;0.734286;0.732037;0.726020;0.716974;0.716611;0.709958;0.708474;0.702076;0.695051;0.689323;0.680634;0.682000;0.675261;0.672645;0.661911;0.656526;0.654185;0.651319;0.642951;0.637205;0.633259;0.630958;0.623982;0.616708;0.617048;0.604970;0.602492;0.602380;0.594297;0.589081;0.580924;0.580961;0.577759;0.574057;0.570563;0.567997;0.557917;0.557356;0.552239;0.547164;0.551097;0.542440;0.538852;0.541168;0.533853;0.529692;0.528092;0.532009;0.520334;0.520581;0.523529;0.517288;0.516642;0.510326;0.513778;0.512971;0.508139;0.508929;0.507809;0.510722;0.507114;0.508793;0.504324;0.502475;0.507960;0.498210;0.504800;0.504938;0.500312;0.497261;0.497675;0.499091;0.498923;0.498389;0.494127;0.496643;0.496055;0.491719;0.497798;0.494443;0.498932;0.495825;0.498522
0.727913;0.728531;0.728584;0.726214;0.723421;0.726436;0.721773;0.726417;0.727880;0.723989;0.724485;0.728220;0.720992;0.721089;0.723780;0.719315;0.719650;0.720324;0.718586;0.719528;0.720280;0.709488;0.714654;0.714494;0.709349;0.706620;0.711780;0.708306;0.707575;0.705224;0.703889;0.706819;0.698767;0.703637;0.701916;0.702692;0.700616;0.695616;0.697343;0.692933;0.690524;0.694047;0.691893;0.692869;0.685960;0.690864;0.685030;0.682641;0.681960;0.677797;0.677838;0.676929;0.678159;0.670762;0.668223;0.664319;0.663038;0.660479;0.663694;0.651040;0.655601;0.656443;0.650178;0.646631;0.639608;0.640403;0.637159;0.630541;0.629853;0.626583;0.624243;0.623075;0.615562;0.614795;0.609679;0.607800;0.608517;0.598984;0.596271;0.589509;0.587293;0.585608;0.579069;0.578838;0.578496;0.572396;0.568843;0.566851;0.562007;0.559667;0.550155;0.550320;0.548769;0.548474;0.545556;0.543222;0.539260;0.535532;0.537877;0.530025
0.580606;0.586520;0.581237;0.588456;0.585856;0.587969;0.586521;0.589319;0.586219;0.588443;0.584669;0.586728;0.590877;0.593870;0.595277;0.597237;0.599528;0.603621;0.601155;0.606248;0.610052;0.605582;0.611013;0.610219;0.616104;0.615788;0.618960;0.619449;0.622142;0.621202;0.631173;0.623827;0.629445;0.629824;0.633240;0.633348;0.640195;0.637122;0.641606;0.646755;0.648097;0.645202;0.646422;0.648224;0.654740;0.652543;0.652598;0.649689;0.649919;0.651104;0.653953;0.654033;0.654966;0.654741;0.655434;0.655067;0.659383;0.654709;0.657664;0.653022;0.649893;0.647190;0.644573;0.646274;0.639405;0.640550;0.646030;0.633075;0.633212;0.629416;0.631651;0.632225;0.623698;0.623380;0.620019;0.620143;0.609116;0.605817;0.601227;0.598681;0.598617;0.596474;0.591451;0.585948;0.582908;0.582890;0.577824;0.568197;0.560755;0.563007;0.557768;0.554261;0.558351;0.549693;0.549834;0.545021;0.542818;0.544404;0.537222;0.534479
0.573597;0.577489;0.577337;0.579911;0.580193;0.585963;0.586721;0.590055;0.594976;0.594445;0.596045;0.606773;0.609798;0.612051;0.613301;0.620211;0.624992;0.634000;0.640390;0.642262;0.652146;0.652878;0.662575;0.666062;0.674065;0.688095;0.692898;0.701994;0.711552;0.718772;0.723017;0.732326;0.743400;0.748513;0.762875;0.773116;0.780990;0.784182;0.801084;0.807729;0.814240;0.822148;0.834996;0.837004;0.848224;0.854662;0.859013;0.867683;0.873166;0.880775;0.881950;0.888814;0.896883;0.898587;0.898269;0.900538;0.906484;0.904244;0.905461;0.909913;0.906386;0.903982;0.899412;0.903101;0.894528;0.886429;0.890538;0.884339;0.876551;0.875784;0.867491;0.859233;0.852773;0.845251;0.839347;0.830623;0.820139;0.804954;0.801637;0.791718;0.781028;0.774574;0.759947;0.754964;0.745357;0.729683;0.723607;0.713107;0.708477;0.695391;0.677207;0.670488;0.668829;0.659383;0.646208;0.639767;0.630242;0.624772;0.616564;0.613718
0.655929;0.654238;0.656251;0.660428;0.659984;0.664238;0.664482;0.661351;0.666377;0.666699;0.673707;0.662604;0.669313;0.670585;0.668012;0.674529;0.673905;0.677009;0.677659;0.682590;0.683568;0.680865;0.684387;0.685151;0.688871;0.684478;0.690861;0.691221;0.693728;0.693462;0.696592;0.696549;0.701440;0.701484;0.699515;0.701338;0.703995;0.707188;0.708853;0.707493;0.706212;0.709634;0.710719;0.712996;0.709892;0.711681;0.713812;0.712599;0.712082;0.710245;0.718677;0.710747;0.707757;0.712003;0.709810;0.710371;0.709463;0.708976;0.703541;0.705795;0.703833;0.703517;0.697670;0.698944;0.694331;0.687591;0.682990;0.684252;0.679623;0.676621;0.672545;0.670955;0.659647;0.658717;0.656185;0.651240;0.646051;0.646433;0.635761;0.636554;0.636619;0.622506;0.619570;0.611417;0.612683;0.605953;0.604536;0.599690;0.592658;0.591806;0.589569;0.582186;0.576783;0.574580;0.570808;0.565499;0.560991;0.560441;0.558072;0.547860
0.793535;0.791303;0.798150;0.805434;0.804256;0.804504;0.813090;0.811908;0.818412;0.816004;0.819822;0.816958;0.823472;0.821117;0.823599;0.823733;0.826099;0.821705;0.821342;0.825680;0.822626;0.820471;0.818461;0.812728;0.817456;0.811693;0.805135;0.809917;0.802065;0.807421;0.797945;0.799444;0.791466;0.787176;0.780517;0.774311;0.771780;0.768972;0.759527;0.749808;0.749828;0.748852;0.744424;0.733156;0.733517;0.721829;0.718031;0.715364;0.705375;0.701913;0.697687;0.693411;0.680398;0.678743;0.677453;0.672467;0.662429;0.659057;0.653272;0.647537;0.644982;0.640218;0.636332;0.633955;0.628610;0.625757;0.614813;0.609750;0.610210;0.601652;0.601600;0.596326;0.590395;0.589664;0.581345;0.587241;0.574831;0.574894;0.573260;0.567496;0.567128;0.564213;0.558367;0.556732;0.554999;0.549126;0.550534;0.548769;0.546034;0.539286;0.538336;0.538283;0.534742;0.535705;0.531790;0.523784;0.524357;0.524145;0.522619;0.520648
0.579244;0.581893;0.583815;0.576548;0.576254;0.580040;0.572736;0.571942;0.576433;0.577896;0.571928;0.570785;0.575909;0.573528;0.571847;0.574834;0.579208;0.579232;0.582028;0.576015;0.583874;0.585376;0.589542;0.591038;0.591321;0.597008;0.600524;0.607425;0.608594;0.611010;0.611203;0.616558;0.620481;0.627237;0.632190;0.634423;0.638631;0.643363;0.639458;0.650047;0.658410;0.660242;0.660719;0.665362;0.670475;0.673010;0.674715;0.683552;0.682921;0.689545;0.689782;0.693462;0.695651;0.701397;0.705498;0.700023;0.703049;0.703210;0.704955;0.697471;0.701738;0.699691;0.700129;0.698208;0.696800;0.694156;0.693285;0.694120;0.688217;0.683088;0.684037;0.679862;0.675383;0.671321;0.667715;0.659949;0.655613;0.653689;0.646404;0.642654;0.634898;0.633822;0.626279;0.622587;0.614547;0.611622;0.607287;0.607941;0.595846;0.594727;0.587970;0.584400;0.581943;0.571189;0.569151;0.563615;0.561026;0.555498;0.550716;0.551104
0.688398;0.694428;0.700764;0.702280;0.709911;0.715494;0.719577;0.722190;0.728775;0.733258;0.740729;0.739950;0.749518;0.751621;0.754726;0.760925;0.760420;0.765107;0.774383;0.777382;0.777809;0.788123;0.783825;0.787731;0.786973;0.794550;0.791771;0.798342;0.798858;0.801626;0.803398;0.804088;0.809439;0.809215;0.808692;0.811077;0.813137;0.807543;0.806771;0.813202;0.813081;0.809566;0.808936;0.811788;0.811485;0.811293;0.806498;0.808881;0.802055;0.802279;0.799671;0.798544;0.801467;0.794971;0.795057;0.787388;0.786734;0.785145;0.777252;0.772259;0.773735;0.769141;0.767000;0.762326;0.755682;0.754108;0.748646;0.741027;0.736478;0.727290;0.723527;0.712817;0.717511;0.710040;0.706643;0.695311;0.683866;0.689267;0.678624;0.668634;0.670771;0.665432;0.654641;0.651949;0.642796;0.637644;0.636216;0.627063;0.621398;0.620479;0.608375;0.606641;0.601866;0.594276;0.589169;0.587942;0.580790;0.578073;0.573804;0.564645
0.793865;0.796991;0.805959;0.805833;0.814477;0.816117;0.821948;0.828126;0.836139;0.833463;0.838176;0.836078;0.843930;0.842429;0.847717;0.848516;0.845147;0.853158;0.849122;0.847660;0.853663;0.850002;0.847865;0.842028;0.847409;0.842632;0.840108;0.844419;0.839479;0.831290;0.833117;0.825288;0.822649;0.815704;0.814870;0.811758;0.805480;0.795386;0.799287;0.791057;0.781866;0.783777;0.773566;0.765271;0.762963;0.760986;0.753496;0.745693;0.739776;0.733787;0.724473;0.721331;0.711673;0.714287;0.704252;0.700534;0.692286;0.688758;0.686685;0.676723;0.669744;0.668987;0.661303;0.660079;0.648142;0.645022;0.638519;0.632683;0.630180;0.627176;0.620164;0.615426;0.611870;0.609166;0.605468;0.599940;0.594060;0.595803;0.593913;0.589073;0.584143;0.578197;0.579610;0.569335;0.569156;0.559358;0.558631;0.558482;0.549873;0.550822;0.553182;0.546545;0.545974;0.541487;0.533189;0.537412;0.535805;0.534786;0.530872;0.527089
0.734459;0.737151;0.734206;0.730249;0.728669;0.724853;0.725705;0.723354;0.716826;0.715692;0.712165;0.718577;0.711520;0.713648;0.712753;0.708458;0.708913;0.705369;0.698567;0.702649;0.703228;0.702020;0.699015;0.692017;0.693042;0.698246;0.689997;0.687778;0.690560;0.687388;0.688050;0.688248;0.684307;0.684663;0.682390;0.685689;0.681566;0.678482;0.682151;0.674004;0.678758;0.678816;0.679025;0.672113;0.676460;0.675781;0.673397;0.674078;0.668210;0.667259;0.667356;0.666952;0.668034;0.664269;0.660537;0.662070;0.655764;0.658636;0.659853;0.652527;0.654318;0.652489;0.647573;0.645340;0.644867;0.643862;0.637485;0.634504;0.632596;0.628755;0.624247;0.625914;0.621208;0.619929;0.616280;0.612017;0.609150;0.605571;0.602700;0.599474;0.594144;0.592280;0.590552;0.581114;0.578857;0.581624;0.574474;0.572724;0.573220;0.564463;0.558635;0.560147;0.558107;0.555404;0.554281;0.552900;0.548273;0.543099;0.542502;0.540348
0.655144;0.657898;0.649580;0.644133;0.640668;0.635938;0.634824;0.627541;0.619446;0.622740;0.614992;0.609833;0.610948;0.610663;0.601084;0.600701;0.598631;0.601314;0.599150;0.593965;0.590900;0.596286;0.591006;0.592676;0.590021;0.588675;0.594223;0.587780;0.586676;0.587643;0.589171;0.589579;0.588400;0.594775;0.593099;0.592244;0.598351;0.596940;0.594290;0.595671;0.604124;0.604222;0.602885;0.609124;0.608768;0.610373;0.611888;0.614785;0.614652;0.616637;0.610982;0.616058;0.617275;0.618103;0.622645;0.619476;0.621152;0.617893;0.617550;0.618021;0.621217;0.616874;0.620584;0.617675;0.614580;0.614889;0.607417;0.614426;0.606109;0.609576;0.604140;0.603576;0.605175;0.604507;0.596124;0.595684;0.593672;0.592459;0.588130;0.585891;0.580928;0.580119;0.579301;0.572671;0.574960;0.569001;0.564143;0.561698;0.558357;0.557538;0.557026;0.549740;0.556013;0.551285;0.541109;0.540110;0.539573;0.534688;0.533309;0.542742
0.739971;0.737778;0.730540;0.723989;0.720603;0.718585;0.713262;0.708615;0.705502;0.705477;0.700061;0.691785;0.686187;0.684772;0.685529;0.678741;0.680995;0.675826;0.673237;0.666908;0.668682;0.665371;0.658060;0.658106;0.658132;0.658734;0.656238;0.656115;0.650782;0.654400;0.651526;0.652568;0.652261;0.650819;0.648034;0.653024;0.647086;0.649157;0.650420;0.653607;0.650744;0.652859;0.655590;0.650017;0.655112;0.650752;0.655089;0.654263;0.651358;0.651003;0.655876;0.656130;0.648811;0.653217;0.654737;0.648384;0.650084;0.652961;0.646662;0.646010;0.646254;0.640412;0.644203;0.642879;0.633524;0.631705;0.638196;0.627173;0.631227;0.627540;0.622708;0.624547;0.619593;0.615765;0.614320;0.611782;0.607254;0.603315;0.602147;0.601907;0.596873;0.590603;0.587867;0.580232;0.581381;0.575720;0.567010;0.571126;0.566421;0.559618;0.563559;0.553615;0.547622;0.549103;0.549815;0.542080;0.543389;0.543345;0.535490;0.542276
0.769751;0.772866;0.777093;0.780826;0.782654;0.783692;0.787665;0.785533;0.792908;0.791658;0.794452;0.795220;0.794337;0.798639;0.796744;0.790997;0.800880;0.800465;0.794146;0.792021;0.793725;0.789194;0.793423;0.789342;0.779902;0.780089;0.778128;0.771075;0.775179;0.772256;0.762939;0.761311;0.754613;0.747951;0.740071;0.742029;0.727065;0.725826;0.717038;0.712032;0.708830;0.701386;0.694607;0.686336;0.681954;0.677932;0.674240;0.664468;0.660910;0.655011;0.643913;0.648850;0.637972;0.633066;0.627691;0.618727;0.613791;0.611813;0.607025;0.601236;0.597858;0.590327;0.585665;0.578372;0.576232;0.575561;0.570237;0.565422;0.561512;0.560503;0.562970;0.555790;0.553521;0.549294;0.550937;0.539732;0.545835;0.539715;0.539101;0.535776;0.532442;0.532566;0.531014;0.528761;0.528820;0.528995;0.525555;0.520208;0.525339;0.522553;0.518719;0.518276;0.516599;0.517784;0.518085;0.516825;0.514051;0.512211;0.513709;0.512600
0.684714;0.688184;0.696226;0.703909;0.707167;0.712517;0.717135;0.722159;0.725821;0.730598;0.730770;0.740444;0.745265;0.752337;0.748284;0.754286;0.761115;0.763406;0.761454;0.767521;0.771622;0.773109;0.775241;0.781221;0.778480;0.780745;0.782348;0.784647;0.785673;0.786055;0.783187;0.785052;0.790237;0.785023;0.788236;0.785634;0.785854;0.778269;0.784330;0.782428;0.780350;0.775433;0.775257;0.771320;0.771994;0.772968;0.768585;0.767546;0.763790;0.760066;0.757062;0.751596;0.747877;0.743656;0.744350;0.744376;0.734198;0.735627;0.727332;0.727081;0.719358;0.719164;0.718248;0.706257;0.705909;0.698209;0.696261;0.689669;0.684786;0.678075;0.674182;0.669146;0.666703;0.659423;0.651387;0.646829;0.644251;0.635162;0.633735;0.629034;0.627104;0.616325;0.618354;0.608108;0.602073;0.594325;0.589786;0.583683;0.581889;0.577094;0.572028;0.569592;0.562947;0.557984;0.556403;0.548812;0.549892;0.543864;0.538378;0.535808
0.756647;0.764991;0.763767;0.769696;0.778379;0.777859;0.777458;0.780056;0.782265;0.783224;0.784499;0.786880;0.791166;0.786554;0.795823;0.791559;0.795357;0.791020;0.793349;0.792599;0.788453;0.792258;0.785870;0.790263;0.785234;0.781268;0.785929;0.780373;0.771550;0.769567;0.771125;0.769317;0.756430;0.757279;0.754422;0.748864;0.747197;0.739301;0.734417;0.730739;0.725450;0.724237;0.714898;0.709935;0.707564;0.698797;0.692653;0.693006;0.690638;0.682026;0.670704;0.666911;0.663786;0.662576;0.651391;0.650773;0.648631;0.644418;0.639362;0.633717;0.631915;0.629579;0.624458;0.614409;0.613838;0.613982;0.604145;0.600347;0.596873;0.595012;0.589248;0.589000;0.580453;0.583102;0.576554;0.574217;0.570109;0.570445;0.565677;0.563273;0.559807;0.556445;0.554152;0.555347;0.549593;0.547908;0.543974;0.543188;0.542446;0.538436;0.538955;0.533528;0.536116;0.532364;0.531695;0.533184;0.528128;0.522613;0.524944;0.524312
0.686611;0.688041;0.681519;0.682811;0.678768;0.675602;0.675068;0.670417;0.666772;0.663608;0.661824;0.661314;0.659063;0.651262;0.653559;0.651888;0.650333;0.647004;0.646219;0.643467;0.640410;0.636840;0.635534;0.629108;0.632433;0.635991;0.626286;0.626134;0.623251;0.623423;0.621961;0.623329;0.619597;0.620224;0.613791;0.613009;0.614694;0.608517;0.609689;0.607627;0.604834;0.602948;0.607214;0.605365;0.598508;0.603463;0.600358;0.597848;0.596148;0.594244;0.592757;0.587622;0.585926;0.590514;0.585039;0.586992;0.577517;0.584950;0.580685;0.571257;0.576901;0.576958;0.576804;0.570599;0.567277;0.566676;0.568646;0.561882;0.566194;0.562423;0.557444;0.559268;0.558057;0.555048;0.555514;0.552008;0.546772;0.546914;0.542522;0.544981;0.541374;0.538556;0.534992;0.534856;0.538837;0.531046;0.529137;0.529386;0.528687;0.527794;0.527244;0.527346;0.519379;0.517104;0.519416;0.519510;0.517039;0.518558;0.513894;0.509762
0.751706;0.746294;0.741142;0.727845;0.727746;0.720471;0.714368;0.706015;0.701984;0.698386;0.687970;0.688173;0.678012;0.674821;0.666015;0.665711;0.656931;0.654126;0.650791;0.645190;0.635453;0.634383;0.629416;0.628343;0.627346;0.622393;0.614276;0.618929;0.615318;0.609840;0.605527;0.604763;0.599156;0.600906;0.597513;0.595978;0.590909;0.592885;0.590057;0.588997;0.587055;0.588998;0.586585;0.586152;0.587190;0.582112;0.580945;0.581310;0.583148;0.577725;0.579227;0.581387;0.577409;0.573432;0.576391;0.570132;0.578117;0.574176;0.573612;0.571427;0.569117;0.571004;0.570402;0.566836;0.561328;0.566902;0.560325;0.561742;0.555235;0.560921;0.553895;0.559217;0.553124;0.556246;0.553737;0.551074;0.549682;0.544037;0.542903;0.545496;0.540002;0.544043;0.536348;0.537918;0.532785;0.531766;0.538147;0.532483;0.531938;0.531279;0.528633;0.528503;0.525864;0.525131;0.521155;0.519974;0.516924;0.520265;0.520654;0.514500
0.730863;0.736378;0.738225;0.737207;0.738305;0.747094;0.753499;0.754072;0.757438;0.762374;0.760309;0.762493;0.765303;0.772524;0.774125;0.771869;0.776800;0.776204;0.779948;0.781098;0.781812;0.787427;0.781983;0.781228;0.784441;0.780383;0.783044;0.781604;0.777268;0.779037;0.780810;0.774348;0.778671;0.774657;0.776898;0.767189;0.766512;0.765138;0.762588;0.756512;0.757257;0.751703;0.745617;0.744027;0.742340;0.742825;0.738856;0.733141;0.730572;0.727629;0.719052;0.722595;0.721314;0.713647;0.711322;0.704242;0.694752;0.696153;0.695799;0.690466;0.689388;0.679137;0.673824;0.671599;0.664820;0.663869;0.649915;0.656465;0.644175;0.643936;0.644605;0.635974;0.633733;0.628683;0.627223;0.625556;0.614048;0.611970;0.608371;0.602752;0.598129;0.592998;0.591814;0.584329;0.584351;0.576941;0.574935;0.571469;0.567084;0.560970;0.560132;0.558060;0.554974;0.547475;0.550684;0.548320;0.541528;0.540707;0.533804;0.533655
0.537105;0.543167;0.543675;0.541707;0.542527;0.545257;0.552321;0.550850;0.555207;0.559412;0.569791;0.568101;0.574575;0.575629;0.579431;0.582918;0.592742;0.598989;0.601598;0.611211;0.616319;0.622927;0.628033;0.635951;0.643802;0.657517;0.660233;0.669716;0.672843;0.684139;0.690812;0.708620;0.704253;0.718020;0.730092;0.737789;0.745595;0.756680;0.767582;0.773435;0.781586;0.793605;0.796365;0.803167;0.818329;0.823182;0.830349;0.834028;0.835736;0.848493;0.852767;0.854854;0.860877;0.863713;0.868410;0.867238;0.874268;0.876148;0.872239;0.871819;0.874269;0.872098;0.876523;0.875605;0.866308;0.862994;0.862361;0.857818;0.847843;0.847811;0.836624;0.833426;0.829164;0.829360;0.818394;0.810212;0.800337;0.794571;0.783319;0.777455;0.767790;0.757708;0.747877;0.740389;0.732837;0.720903;0.712756;0.703612;0.694607;0.688174;0.678548;0.667137;0.663526;0.655134;0.644303;0.635459;0.631080;0.622473;0.617105;0.611498
0.713885;0.705886;0.699575;0.693636;0.687297;0.678299;0.671507;0.670523;0.657090;0.656467;0.652688;0.647517;0.638926;0.633536;0.631356;0.629338;0.624732;0.617204;0.611474;0.608193;0.600373;0.594342;0.595577;0.588036;0.589668;0.585610;0.579637;0.583519;0.575017;0.569736;0.568396;0.567838;0.561274;0.562149;0.561436;0.559161;0.552088;0.555298;0.549941;0.548161;0.545088;0.547967;0.540491;0.544547;0.547979;0.534319;0.537541;0.538690;0.531833;0.538821;0.536164;0.530447;0.534480;0.535108;0.528873;0.534258;0.529184;0.527641;0.525170;0.529750;0.529484;0.526961;0.523338;0.528213;0.525976;0.525726;0.524333;0.518577;0.524153;0.521137;0.519158;0.517359;0.516361;0.518144;0.523364;0.516631;0.517271;0.511801;0.516923;0.522049;0.514324;0.512775;0.513572;0.515567;0.509317;0.515912;0.511817;0.507975;0.515290;0.506420;0.512631;0.511614;0.505379;0.507956;0.513089;0.506169;0.512419;0.505417;0.508454;0.504066
0.694690;0.699046;0.699616;0.702886;0.701934;0.703406;0.708179;0.711752;0.714477;0.722412;0.717043;0.719464;0.721603;0.723629;0.729566;0.733543;0.735198;0.733183;0.735710;0.736347;0.738526;0.743930;0.744625;0.748331;0.747951;0.744346;0.743297;0.746458;0.744834;0.744805;0.748461;0.747055;0.746730;0.745274;0.750054;0.745469;0.748071;0.743243;0.745056;0.744410;0.744338;0.741361;0.740185;0.743135;0.743394;0.742431;0.733462;0.737625;0.735574;0.731243;0.729734;0.728167;0.725923;0.721666;0.719861;0.721375;0.713348;0.713569;0.709425;0.708241;0.702522;0.703922;0.698146;0.699653;0.690636;0.681564;0.679781;0.678435;0.675310;0.672752;0.665676;0.659700;0.654990;0.653895;0.649168;0.644072;0.636432;0.635250;0.626490;0.625957;0.620669;0.617937;0.611257;0.607169;0.600904;0.597570;0.597579;0.593088;0.585102;0.581496;0.578173;0.575813;0.572186;0.563589;0.565381;0.561079;0.555804;0.555096;0.553454;0.542230
0.605229;0.602375;0.600216;0.602458;0.604395;0.605140;0.595810;0.603344;0.600255;0.604181;0.604274;0.602396;0.606299;0.601195;0.602545;0.607440;0.603766;0.604483;0.601884;0.597720;0.605124;0.607774;0.604577;0.606089;0.598943;0.605720;0.601664;0.601983;0.603040;0.604436;0.598590;0.596243;0.600314;0.602301;0.598721;0.598547;0.596216;0.600585;0.598488;0.594878;0.597725;0.590420;0.592186;0.588312;0.590590;0.587294;0.591264;0.584549;0.583307;0.580550;0.586671;0.575152;0.578505;0.574632;0.573479;0.572386;0.574840;0.574716;0.570706;0.568636;0.569774;0.565033;0.562921;0.557842;0.560912;0.558084;0.558390;0.550208;0.552778;0.550329;0.549652;0.551107;0.550568;0.544561;0.546185;0.543761;0.544928;0.540534;0.539729;0.537054;0.533313;0.530603;0.526661;0.529712;0.523605;0.529269;0.522211;0.525217;0.524544;0.519328;0.515413;0.516472;0.516044;0.510277;0.512698;0.514941;0.508811;0.515738;0.508495;0.515178
0.629721;0.630716;0.628472;0.629315;0.631861;0.636569;0.637458;0.638452;0.643463;0.640506;0.651808;0.650815;0.655394;0.649915;0.655806;0.655141;0.660358;0.663655;0.664537;0.666114;0.671961;0.676770;0.674361;0.677470;0.682536;0.688089;0.680038;0.689543;0.691499;0.696692;0.694242;0.704625;0.704975;0.704921;0.707391;0.711725;0.713074;0.715612;0.715518;0.719391;0.724236;0.722701;0.727439;0.730873;0.726595;0.728501;0.735263;0.733804;0.735472;0.730408;0.731962;0.736417;0.731317;0.734218;0.733104;0.733459;0.730853;0.729037;0.729719;0.728866;0.723702;0.720875;0.718701;0.715503;0.716885;0.709854;0.711211;0.708494;0.702177;0.696480;0.700669;0.688727;0.683608;0.677537;0.676016;0.666001;0.668397;0.659058;0.654392;0.648689;0.642968;0.636544;0.630372;0.625010;0.619357;0.612900;0.611844;0.608275;0.602721;0.599367;0.589107;0.588881;0.584413;0.579374;0.568144;0.567588;0.561979;0.560446;0.554423;0.549194
0.542068;0.550531;0.549080;0.547080;0.553772;0.554075;0.556354;0.553711;0.556676;0.556375;0.563098;0.563105;0.564911;0.568898;0.568947;0.576389;0.577678;0.580820;0.581254;0.591097;0.594904;0.592028;0.596919;0.601490;0.607343;0.611679;0.619290;0.619236;0.627907;0.631395;0.632425;0.638013;0.641858;0.648709;0.658383;0.654473;0.667150;0.669881;0.672638;0.677274;0.677989;0.682990;0.693899;0.690882;0.698083;0.701356;0.704443;0.708217;0.707621;0.717155;0.714205;0.720964;0.723679;0.726406;0.725926;0.726536;0.723146;0.723363;0.725680;0.724497;0.725344;0.724786;0.723784;0.725702;0.722825;0.713492;0.716898;0.712070;0.706927;0.706573;0.697952;0.698287;0.694918;0.684036;0.684943;0.682655;0.671141;0.669904;0.663654;0.657910;0.656664;0.647155;0.646249;0.635656;0.634364;0.628769;0.620491;0.617502;0.608206;0.606856;0.602903;0.595598;0.592065;0.581987;0.579202;0.573776;0.567561;0.565929;0.558944;0.560306
0.757366;0.757267;0.762594;0.770479;0.782207;0.780699;0.790359;0.790843;0.796209;0.802293;0.801982;0.812331;0.816680;0.816751;0.818909;0.821357;0.825044;0.823677;0.827489;0.828607;0.828619;0.822950;0.826528;0.821591;0.823739;0.816880;0.816910;0.815863;0.808959;0.804860;0.798512;0.794640;0.787097;0.781712;0.777291;0.763508;0.758345;0.754757;0.745555;0.737317;0.732554;0.719178;0.714006;0.710033;0.700231;0.691204;0.681799;0.677311;0.669734;0.658656;0.655848;0.647359;0.637528;0.633845;0.624982;0.615970;0.608123;0.602729;0.598688;0.592482;0.584287;0.580673;0.576867;0.565378;0.567623;0.557008;0.561960;0.550556;0.549497;0.542311;0.541275;0.534922;0.533080;0.535634;0.526866;0.523789;0.526061;0.521459;0.522567;0.519216;0.517962;0.520382;0.513181;0.512967;0.515103;0.514353;0.507592;0.509007;0.511478;0.505538;0.500947;0.505428;0.507745;0.501461;0.504436;0.503145;0.503156;0.502687;0.501439;0.502516
0.647196;0.655683;0.654342;0.657847;0.663735;0.667552;0.668972;0.674128;0.676028;0.682212;0.683350;0.692625;0.691625;0.700482;0.700540;0.704775;0.709372;0.713438;0.720915;0.720864;0.727671;0.729083;0.733250;0.741641;0.744963;0.753247;0.751897;0.759519;0.759095;0.763685;0.770886;0.769852;0.774909;0.781157;0.782187;0.789317;0.795688;0.793962;0.801510;0.803037;0.807440;0.807629;0.808303;0.816376;0.812116;0.821259;0.818694;0.826435;0.822938;0.825548;0.824899;0.824136;0.828615;0.822625;0.828680;0.826527;0.824563;0.822866;0.818001;0.818739;0.814234;0.817900;0.806653;0.803018;0.803164;0.800354;0.790710;0.788671;0.781998;0.778007;0.772991;0.766064;0.758790;0.754343;0.747113;0.741297;0.731530;0.728979;0.719155;0.711205;0.705199;0.699645;0.689358;0.681849;0.677848;0.672194;0.661539;0.656904;0.650981;0.641582;0.635964;0.629338;0.620232;0.614738;0.613729;0.607836;0.601733;0.594018;0.586619;0.589107
0.602589;0.602682;0.606630;0.600452;0.601517;0.601829;0.601776;0.605106;0.604827;0.604194;0.599844;0.600201;0.605614;0.602977;0.603480;0.603068;0.606033;0.605702;0.604869;0.604314;0.602126;0.605998;0.602876;0.605266;0.600045;0.603557;0.601400;0.608416;0.603268;0.600631;0.606996;0.599830;0.602294;0.603029;0.601037;0.600530;0.603429;0.599637;0.597189;0.595344;0.597349;0.594330;0.598561;0.592927;0.591472;0.590883;0.589543;0.590134;0.588524;0.592255;0.587192;0.588156;0.587784;0.585351;0.582963;0.584701;0.579901;0.577274;0.572788;0.573977;0.572193;0.575311;0.570652;0.568256;0.571327;0.565161;0.565724;0.563970;0.558955;0.558682;0.561193;0.558498;0.555920;0.556491;0.553843;0.548016;0.549662;0.543606;0.541085;0.543406;0.545160;0.539071;0.538136;0.539682;0.538778;0.537686;0.532273;0.531184;0.534266;0.528428;0.530187;0.525831;0.523704;0.522089;0.522365;0.518282;0.522758;0.527949;0.520204;0.515512
0.669433;0.673140;0.667999;0.668632;0.669810;0.669010;0.671424;0.667801;0.668059;0.670808;0.669160;0.666298;0.667288;0.670073;0.672466;0.664143;0.666971;0.664111;0.659082;0.662020;0.661337;0.664590;0.656841;0.657310;0.651544;0.652815;0.647951;0.642760;0.643124;0.645200;0.631898;0.635376;0.636992;0.629322;0.622165;0.619407;0.612722;0.611142;0.613114;0.610067;0.602782;0.601553;0.593360;0.601250;0.588221;0.585998;0.588346;0.577938;0.577766;0.575993;0.565259;0.566323;0.570377;0.558698;0.556067;0.557850;0.551650;0.551783;0.542678;0.542582;0.536274;0.541427;0.537586;0.535105;0.529832;0.524489;0.526904;0.526178;0.523202;0.523389;0.519188;0.521073;0.520386;0.518078;0.514850;0.515107;0.510229;0.512659;0.507092;0.509868;0.516577;0.509508;0.507875;0.507469;0.505560;0.505235;0.503649;0.505395;0.502396;0.504463;0.500628;0.503599;0.498716;0.504884;0.501472;0.502324;0.501834;0.500806;0.510063;0.504015
0.654033;0.652184;0.654963;0.664585;0.667154;0.662718;0.668247;0.668884;0.676708;0.676008;0.678676;0.680895;0.682283;0.691172;0.692307;0.691022;0.688600;0.695977;0.694691;0.697574;0.699618;0.704206;0.705962;0.704811;0.706898;0.706032;0.707029;0.710899;0.713158;0.716189;0.713209;0.711667;0.715768;0.719942;0.718229;0.718878;0.714787;0.724584;0.715406;0.715512;0.714492;0.714288;0.713181;0.713799;0.717504;0.715076;0.715687;0.708480;0.713114;0.710635;0.707607;0.709493;0.705330;0.706957;0.702739;0.698518;0.700453;0.692027;0.693137;0.692077;0.686470;0.685839;0.681975;0.683761;0.677413;0.673518;0.669320;0.666499;0.657748;0.656233;0.657563;0.653464;0.647815;0.641010;0.636677;0.633188;0.633627;0.626857;0.624689;0.617081;0.616103;0.611704;0.604952;0.600422;0.597271;0.591939;0.592938;0.584786;0.584650;0.577766;0.572706;0.572401;0.561913;0.561342;0.559029;0.557597;0.551812;0.554804;0.543641;0.542843
0.673985;0.666615;0.666152;0.662307;0.661098;0.650869;0.647057;0.651412;0.638224;0.644982;0.634415;0.633479;0.630127;0.632621;0.626445;0.626877;0.628484;0.625225;0.624261;0.623713;0.621761;0.625627;0.624615;0.628985;0.631230;0.626438;0.634710;0.635970;0.634426;0.637635;0.638802;0.641038;0.652278;0.652845;0.653017;0.654513;0.661690;0.667558;0.668781;0.674942;0.679797;0.677737;0.680454;0.683075;0.688106;0.690408;0.704283;0.700568;0.701803;0.702558;0.711515;0.711546;0.711315;0.713744;0.718858;0.720521;0.715039;0.715864;0.722439;0.716451;0.719131;0.719410;0.717014;0.723714;0.715135;0.711440;0.710810;0.709391;0.702141;0.701234;0.700670;0.695127;0.689089;0.682169;0.682710;0.679789;0.674288;0.671583;0.661368;0.657793;0.655862;0.649178;0.647979;0.636145;0.631457;0.632498;0.620055;0.616531;0.612727;0.604734;0.603278;0.594164;0.589455;0.581214;0.580366;0.579169;0.569889;0.569787;0.564660;0.567312
0.592311;0.592266;0.593830;0.596840;0.603638;0.599477;0.594004;0.601404;0.599508;0.596540;0.602722;0.600906;0.607133;0.609260;0.615509;0.610442;0.617266;0.618298;0.615689;0.614810;0.623748;0.619485;0.628403;0.627527;0.627877;0.628634;0.631382;0.634482;0.640013;0.641874;0.643044;0.644521;0.643438;0.646075;0.646882;0.652606;0.648673;0.655324;0.655013;0.659961;0.659796;0.656823;0.664629;0.659366;0.667348;0.668982;0.665601;0.671644;0.667243;0.664549;0.670225;0.668973;0.669353;0.671405;0.664528;0.670574;0.666804;0.668220;0.668458;0.665512;0.657855;0.660561;0.655667;0.651824;0.662115;0.654675;0.650868;0.649045;0.643840;0.642747;0.639771;0.635647;0.629861;0.629801;0.621362;0.621022;0.619592;0.617677;0.615823;0.601651;0.605722;0.598727;0.597754;0.591576;0.588677;0.588356;0.584226;0.578371;0.575115;0.568507;0.567422;0.562593;0.560306;0.553948;0.553257;0.552056;0.546771;0.548314;0.541063;0.537618
0.651289;0.651946;0.650467;0.644992;0.650985;0.649209;0.650495;0.650602;0.651941;0.651811;0.652029;0.655041;0.653656;0.649946;0.653690;0.656717;0.653991;0.658631;0.656027;0.655289;0.654112;0.656545;0.655878;0.661658;0.662902;0.661889;0.659675;0.658505;0.661626;0.665070;0.664389;0.661876;0.662657;0.665358;0.664324;0.662992;0.664828;0.670667;0.662486;0.666537;0.663104;0.667335;0.665762;0.665409;0.663080;0.668920;0.665150;0.659650;0.662072;0.659970;0.660438;0.660422;0.663040;0.657734;0.657560;0.659323;0.657859;0.653835;0.656375;0.650256;0.652915;0.649282;0.644256;0.643421;0.643109;0.638554;0.636849;0.634293;0.624722;0.627526;0.625667;0.620221;0.615430;0.616076;0.614073;0.608839;0.606835;0.601243;0.599122;0.601635;0.593706;0.592999;0.588625;0.579481;0.576395;0.569735;0.566992;0.571785;0.562488;0.560796;0.563685;0.560053;0.551625;0.550570;0.546387;0.543658;0.541476;0.537970;0.533847;0.532551
0.553888;0.551123;0.549050;0.553725;0.549769;0.551877;0.550286;0.548308;0.544530;0.547083;0.551864;0.551136;0.545514;0.550693;0.550592;0.554221;0.559284;0.556247;0.558095;0.561253;0.562674;0.563935;0.565051;0.567743;0.571279;0.569913;0.576830;0.578739;0.583750;0.582027;0.590898;0.588759;0.590372;0.597654;0.598769;0.602889;0.609868;0.613764;0.610366;0.618186;0.620595;0.622379;0.628890;0.630042;0.632669;0.632763;0.641076;0.646557;0.644532;0.654445;0.645896;0.648404;0.652096;0.654559;0.653784;0.655093;0.654428;0.654604;0.657116;0.658640;0.653908;0.660115;0.656232;0.656921;0.652629;0.650691;0.651224;0.651238;0.645330;0.644175;0.638743;0.641544;0.633780;0.632869;0.627209;0.629882;0.625443;0.620056;0.615180;0.612662;0.608673;0.607653;0.604436;0.597568;0.595809;0.588887;0.589365;0.585222;0.578436;0.576496;0.568552;0.571274;0.565031;0.561318;0.560681;0.553747;0.551932;0.549353;0.549145;0.538586
0.769772;0.777951;0.774847;0.786890;0.788771;0.788894;0.796019;0.800247;0.800127;0.806125;0.804981;0.808201;0.815870;0.816983;0.824397;0.822792;0.819285;0.820465;0.819231;0.820003;0.824065;0.822093;0.822559;0.818792;0.815091;0.815169;0.811332;0.804580;0.805583;0.808217;0.801377;0.794046;0.792860;0.788672;0.785823;0.780948;0.774281;0.772621;0.767919;0.756061;0.754243;0.744844;0.742891;0.735979;0.729076;0.725609;0.716885;0.710488;0.708396;0.707317;0.696160;0.686127;0.682250;0.677170;0.667451;0.666978;0.661752;0.654623;0.648978;0.644009;0.643105;0.637305;0.633390;0.630186;0.621485;0.617276;0.615593;0.606007;0.600926;0.597263;0.588057;0.593493;0.585600;0.581879;0.580054;0.580597;0.569765;0.570411;0.561417;0.564527;0.555748;0.553917;0.554940;0.549530;0.549387;0.545028;0.545182;0.540628;0.540731;0.536489;0.532638;0.526115;0.529514;0.523885;0.527733;0.524573;0.525218;0.517936;0.520088;0.518519
0.691873;0.693201;0.697345;0.697575;0.696401;0.698934;0.703475;0.701352;0.704408;0.707711;0.708106;0.706892;0.705999;0.709118;0.712132;0.713981;0.711657;0.715192;0.719638;0.716652;0.723122;0.722224;0.725546;0.724326;0.726765;0.734015;0.730863;0.730564;0.733924;0.735266;0.733986;0.734825;0.733453;0.738055;0.742319;0.741385;0.742035;0.736261;0.742249;0.740343;0.739817;0.737756;0.744454;0.740427;0.744399;0.740200;0.741678;0.746307;0.741504;0.740750;0.744186;0.738482;0.738571;0.737264;0.737637;0.733740;0.726974;0.731267;0.726213;0.726136;0.722050;0.721952;0.718736;0.709452;0.705181;0.706637;0.706331;0.700658;0.696056;0.691013;0.690983;0.682292;0.676127;0.677875;0.669784;0.667949;0.660555;0.656902;0.650452;0.645590;0.642231;0.637965;0.634225;0.629511;0.621472;0.617569;0.614053;0.611495;0.603465;0.601083;0.591579;0.590851;0.590181;0.582906;0.577754;0.574513;0.572932;0.567260;0.568684;0.562189
0.694136;0.687817;0.685344;0.690221;0.685444;0.682100;0.681630;0.679580;0.677222;0.678088;0.676559;0.673890;0.666850;0.669142;0.665128;0.661386;0.661928;0.656401;0.654505;0.653680;0.655383;0.656796;0.650094;0.650990;0.642824;0.642275;0.642336;0.643113;0.631890;0.640269;0.639439;0.631600;0.632023;0.627946;0.624641;0.625905;0.621465;0.620307;0.620116;0.623831;0.612057;0.617368;0.613087;0.615352;0.610477;0.603795;0.605094;0.609665;0.601175;0.600052;0.598388;0.597805;0.599093;0.592781;0.592129;0.593669;0.584915;0.584621;0.582265;0.584523;0.580872;0.578557;0.578488;0.583179;0.573129;0.573964;0.569462;0.567993;0.562202;0.564844;0.562595;0.561013;0.560010;0.553822;0.553578;0.554706;0.553840;0.549148;0.546926;0.549733;0.547557;0.543739;0.541332;0.536588;0.537419;0.539225;0.533939;0.532798;0.536370;0.530109;0.526778;0.527521;0.520024;0.524895;0.523613;0.523894;0.521952;0.518921;0.518929;0.519977
0.778104;0.786343;0.784584;0.789586;0.785471;0.790397;0.792325;0.791243;0.794395;0.793291;0.796306;0.791748;0.794773;0.794374;0.795195;0.790046;0.792728;0.795684;0.790050;0.786939;0.787332;0.786914;0.780330;0.778203;0.774388;0.774644;0.772810;0.769653;0.755842;0.757090;0.757936;0.747266;0.744529;0.742492;0.736656;0.734673;0.728189;0.718082;0.714411;0.714737;0.703025;0.701527;0.693819;0.686330;0.690194;0.675483;0.675270;0.671387;0.662473;0.654529;0.650252;0.641772;0.639411;0.633617;0.629337;0.625278;0.621171;0.617748;0.605903;0.605024;0.598103;0.593193;0.596054;0.586404;0.582524;0.578464;0.571247;0.575687;0.567819;0.565320;0.564468;0.563520;0.561256;0.555930;0.552444;0.545434;0.553417;0.547962;0.537514;0.540201;0.543998;0.537390;0.534302;0.532426;0.531752;0.527094;0.525145;0.530470;0.527763;0.518882;0.520278;0.521236;0.524489;0.515874;0.517017;0.513414;0.513403;0.514885;0.508593;0.510936
