partition,sample_id,1100,1105,1110,1115,1120,1125,1130,1135,1140,1145,1150,1155,1160,1165,1170,1175,1180,1185,1190,1195,1200,1205,1210,1215,1220,1225,1230,1235,1240,1245,1250,1255,1260,1265,1270,1275,1280,1285,1290,1295,1301,1306,1311,1316,1321,1326,1331,1336,1341,1346,1351,1356,1361,1366,1371,1376,1381,1386,1391,1396,1401,1406,1411,1416,1421,1426,1431,1436,1441,1446,1451,1456,1461,1466,1471,1476,1481,1486,1491,1496,1502,1507,1512,1517,1522,1527,1532,1537,1542,1547,1552,1557,1562,1567,1572,1577,1582,1587,1592,1597,1602,1607,1612,1617,1622,1627,1632,1637,1642,1647,1652,1657,1662,1667,1672,1677,1682,1687,1692,1697,1703,1708,1713,1718,1723,1728,1733,1738,1743,1748,1753,1758,1763,1768,1773,1778,1783,1788,1793,1798,1803,1808,1813,1818,1823,1828,1833,1838,1843,1848,1853,1858,1863,1868,1873,1878,1883,1888,1893,1898,1904,1909,1914,1919,1924,1929,1934,1939,1944,1949,1954,1959,1964,1969,1974,1979,1984,1989,1994,1999,2004,2009,2014,2019,2024,2029,2034,2039,2044,2049,2054,2059,2064,2069,2074,2079,2084,2089,2094,2100,target
train,sample_0000,0.5200605318264347,0.5229129370730191,0.5234094404345703,0.5255180555491842,0.5244308423146288,0.5272730372283241,0.5342753668997425,0.5320294434543327,0.5354391675251354,0.5365796591411565,0.5430991013292878,0.5414907960619054,0.5478193763525567,0.5509525015684229,0.5497864691432737,0.5553603510706221,0.5550932243206707,0.5591993282524195,0.5590013196200591,0.5645630575119676,0.5716725356723513,0.5699785854551728,0.5701160543070063,0.5750295865332946,0.5758945826529471,0.5833575194558019,0.5858347566110842,0.5924653603093115,0.5896030051955039,0.5923086560590796,0.5966384339456381,0.6049041450478123,0.6133102810378296,0.6116694742266943,0.6157897508091295,0.6222836231498425,0.6243364750306579,0.6260234465349388,0.6320116880852051,0.6367392575185927,0.6471052053457441,0.6528385719227324,0.656198173451209,0.6591373027614684,0.6617651159457484,0.6701518020558416,0.6701332763057626,0.6784572782543292,0.6824117123563409,0.6897914045825818,0.6920200282384098,0.7019244985733265,0.7062687886780021,0.7106290470091907,0.7163885471819391,0.7181986478791602,0.7267268845493496,0.7279370841422598,0.7360689815850052,0.7379988889174233,0.7434961554890197,0.7466891273862237,0.7509910138629322,0.7538503827964547,0.7611569530818093,0.7644796744771853,0.7690288798166147,0.7726115834418301,0.7736787650059401,0.7750022444267121,0.7729090562999025,0.7850930231303423,0.784328820281379,0.781936694681366,0.7874483342011915,0.7839988271952886,0.7868985994696733,0.7918308006151864,0.7842248991248657,0.7838268616144052,0.7858604929737771,0.7808086704748285,0.7815868733099445,0.7771832775248236,0.7753137937905035,0.7684130507402873,0.7701400464071753,0.7646975398960993,0.7646191178437381,0.7596123009083519,0.7524715589633961,0.7499440111467809,0.7494310711867957,0.7426222510457271,0.7387572906834574,0.7323947134449244,0.726687528114212,0.7178922946951676,0.7122189717192207,0.7085146351002944,0.70546500314744,0.6951118543923063,0.6930393544692429,0.6821822264759111,0.6758388855038138,0.6742597959925349,0.6697326434622328,0.6687440320755854,0.6608844796878262,0.6557914012849662,0.6505629641325186,0.6452131938375927,0.6437736092016368,0.6394304100475574,0.6344790015713626,0.6324213027958077,0.6277947398352931,0.6289093715585696,0.6261089766963748,0.6247553415632032,0.6198100233065238,0.6195613913929772,0.618540386875225,0.6199374665028785,0.6185950444017434,0.6157245797291769,0.6186987001657697,0.6109112525110603,0.6172221709160015,0.6143818710975281,0.6180195512092154,0.6211896339815342,0.6211819476051428,0.6215019676360389,0.6244715310372585,0.6298123725409968,0.6268141554143777,0.6344311561030547,0.6351732342719916,0.6408787929318234,0.6413576771227727,0.6416536731597892,0.642960959294784,0.6422886953343101,0.6472983733675418,0.6493495125128748,0.6554947799045134,0.6498069866491953,0.654749537812117,0.6581313621844398,0.6596928715976219,0.6578346967067423,0.6641122139088742,0.6692698928384287,0.6659512757592985,0.6660785657126511,0.6652340624360656,0.672394932156094,0.6664097978148489,0.671446356437697,0.6690143515823168,0.6664636936756336,0.6677591120704027,0.6666577926674941,0.6648041665960311,0.6626130668493937,0.6583752086237193,0.6590617690576004,0.6610045232635464,0.6540735434319012,0.6520774721460603,0.6480334823608879,0.6443035947220794,0.6383097655991499,0.6414714006964464,0.6362970561018242,0.6320792794218835,0.6271148654641296,0.6295870757409419,0.6242027915334661,0.6177134525587641,0.6148711521761155,0.6111907388004201,0.604453201914219,0.6045238299272648,0.5985053728694504,0.5974636770154158,0.5880863428776278,0.5844493388234777,0.5819086535162264,0.578399817364191,0.5722251530931324,0.5687674781891476,0.5641262733644636,0.563814746921054,0.561338844613738,0.5614849312620793,0.5519479636663035,0.5513534166420396,0.5460392564175097,20.802984877560604
train,sample_0001,0.5343592425164805,0.5442533782247166,0.5450174797543228,0.5512986137079274,0.5490671930060513,0.5558621706388741,0.555170229054513,0.5624832640648915,0.567470079965221,0.5715257054878439,0.5765638657173732,0.5773394245402829,0.5776020068191677,0.5777120882720002,0.5846164077930458,0.5913091028320844,0.5957495504303708,0.6023281556209481,0.604499254075059,0.6100212007792913,0.6152604168449458,0.6160785209698202,0.6156454029277668,0.6245331682912483,0.6256071767979685,0.6259762480330793,0.6359159693767865,0.6352361244449807,0.6382028642058947,0.6472260610978754,0.6455844579151618,0.6456019006788942,0.6493825518577357,0.657406263832707,0.6607551278385579,0.6555461646584322,0.6577745171435959,0.657885656429484,0.6676479754785706,0.6641610351146581,0.6632520012186895,0.6721193907777177,0.6708804796944076,0.6696816597129889,0.6726875859330818,0.6681943204290821,0.6693820898902498,0.6705839662929916,0.6704764519174118,0.6677546045700873,0.67113867312847,0.6690386320477222,0.672668306479438,0.6711248078876301,0.6667794917108659,0.6678747225954254,0.6712491986499608,0.669327257611245,0.6702391513653533,0.6611021273383838,0.6693560253141704,0.665148134811446,0.662887776286666,0.6646233081300349,0.6604446645731001,0.6571293155425808,0.6537074921985583,0.6557355779250108,0.6557570346865689,0.6586312379002139,0.6552584906259213,0.6487104529205827,0.6521469272366631,0.6505747588062983,0.6497202237148709,0.6457600181947131,0.6424679516648197,0.6496664073237763,0.6491565461134644,0.6493921449320672,0.6473458703570378,0.651040513274854,0.6455844587294174,0.6451179873954216,0.6439753176393107,0.6432644912963698,0.6533193821138872,0.6483029122907,0.6498514373000219,0.6504432614837903,0.6538103105330255,0.6494439634241388,0.6550381969616126,0.6566990552624243,0.6554138402755414,0.6571328400545566,0.6554241011227488,0.6588997579042699,0.6548896833011495,0.6619413903189887,0.66917745216573,0.6632628863991323,0.6682186455250416,0.6699449979271412,0.6700808945068308,0.6691625627618996,0.6687576198684525,0.6766873697902234,0.6731090716014566,0.677242860787317,0.6814499472667338,0.6800140111349309,0.6765158694153743,0.6864169230963871,0.6787904207798768,0.6828942697192931,0.681161628792646,0.6871633804974306,0.6872049269398517,0.6915179793313158,0.6920786382198796,0.6917228366697814,0.6927794538585359,0.6967643994523196,0.6940172904998044,0.6993003796408105,0.6981735670041636,0.6956677921672763,0.7033815980136662,0.7016589193916489,0.7006578298436928,0.7048150814028775,0.7011862182149382,0.7037323113918879,0.7044426683260877,0.709531011626761,0.7079393647345167,0.7015988635841528,0.7056688446276986,0.706818542569112,0.7092463748236993,0.7064668831280798,0.7027540523539906,0.7085978861134982,0.7073503116187057,0.7045035165652337,0.703919153622199,0.706122359865095,0.7027723096860415,0.7036753063098682,0.7008563767964044,0.6989764005889563,0.6996095732890025,0.6987273402571608,0.697964834330507,0.6956580491276269,0.6940642684894468,0.6897133678132039,0.6892802881189604,0.6854889722962122,0.6797929365922619,0.6848232090346027,0.681794348682893,0.6772160296349923,0.6732422415222358,0.674535698318963,0.6668338384496748,0.6610548548309683,0.6584610376744392,0.6521479948498677,0.6524296055392905,0.6523531134331841,0.6464767189808032,0.6349092083354599,0.637126975100839,0.6298622051887313,0.6294415157012168,0.6248143322423785,0.6179285029920146,0.6187151352123303,0.608931365945969,0.609922748861668,0.6040509283062225,0.5970880241642472,0.588913932822879,0.5880353011122006,0.5882051930573885,0.5820502684594948,0.580423026514655,0.5743532783167024,0.5720257365361971,0.5704437263914233,0.5612950267874568,0.5564969436931894,0.5550265288411464,0.5554294750511547,0.5509802368026836,0.5424244733049666,0.5437441761391588,0.5397447324542702,21.322610134189
train,sample_0002,0.5069402519611373,0.5070791058427758,0.5106150073831744,0.5125229132542294,0.5130988032262473,0.5095264347556315,0.5158297181393022,0.5153742960143489,0.5140872581829559,0.515748336228702,0.5194706858822057,0.5159566040303868,0.5235715121758344,0.5175751333343395,0.5216631552714643,0.5200912172339232,0.5247395857167837,0.5265833501720559,0.5247372961245498,0.5248230367412675,0.5303868980454911,0.529251897199431,0.5315741080736439,0.5289347970977678,0.5336949343156011,0.53925257954228,0.5343771150149946,0.5390628493420192,0.54402013295857,0.5439404973878879,0.5474611281994604,0.5478735640096832,0.5446865574001816,0.5502621570548186,0.5504615736691741,0.5525993621421421,0.5544010082439679,0.5517599047308936,0.5587470306186045,0.5637784684255632,0.5591421062395613,0.569070244676002,0.5680441414335738,0.5719634531835857,0.5706034148963363,0.5743451745612639,0.5787104933539561,0.5829258729820251,0.583031984251768,0.5855044577116146,0.5852169397578804,0.5878081121976576,0.5946889072645923,0.598778017754066,0.6015192528496882,0.6046410799603756,0.6034293218274303,0.6064197995424002,0.6098497095912455,0.616980381614222,0.6178811034026961,0.6149798254098499,0.6231705632577593,0.6210282285311554,0.6283081966276504,0.6330335043164819,0.6331977508625972,0.6353449071042718,0.6375310823333732,0.6370904749579199,0.6435161368247081,0.6474754345075454,0.6462042696195932,0.6471105025770948,0.6546642986718859,0.6562899096141583,0.6558947465319512,0.6598508661975135,0.6632056429480429,0.6598247349164782,0.6638897355959021,0.668891104937802,0.6678587900511348,0.6700408585894291,0.6679100453423029,0.6816756225889294,0.6726801829061958,0.6766201535338014,0.6788497905814598,0.6826650494947791,0.6819832016397082,0.6806255263049045,0.6820153227996302,0.6860666729242424,0.68713683071351,0.6894156423767306,0.6927570521990953,0.6894950184126531,0.6936286810951972,0.697729819902689,0.6970157618964945,0.69541850330953,0.7026466812101719,0.7035161957052951,0.7039967088055538,0.7061638405544322,0.7099284406341009,0.7060610502131729,0.7139705006462351,0.7078258532119637,0.7107790410523949,0.7102358632992566,0.7118957934024872,0.7150880482052998,0.7209283476200464,0.7181349041552495,0.7221084311395267,0.7258287752246977,0.7259157310219879,0.7259456290586619,0.7265069242945417,0.7323375705486326,0.7330680031353627,0.7377551509539677,0.7403437475841389,0.7397907370485076,0.7416543060323869,0.7436718899657291,0.7467421160632378,0.7482469819044157,0.7489159145126134,0.7531194339099703,0.7519466039142415,0.7545843671452872,0.7594451426280135,0.7594433906095108,0.761574644126263,0.7617331202681346,0.7612727578608871,0.7634391451586638,0.7704249250151263,0.7729097759450984,0.7703545980987401,0.7690360111186794,0.7705006978147275,0.7678897563934342,0.7704534603736053,0.7695356063761174,0.7702651691038078,0.7689969959453855,0.7745322724006054,0.7705144306678335,0.7676685251039232,0.7746410624310971,0.7732259828970933,0.767737215132043,0.765413782513345,0.7681391451778353,0.7658547888601538,0.7575611503022724,0.7585453919540016,0.7583974594463501,0.7477786333034455,0.7514025517072067,0.7437281581105363,0.7434328981161897,0.7323545599702517,0.733095298553188,0.725633162723521,0.7263849393270102,0.7173986801544834,0.7137212580231654,0.7088606267842064,0.7036815581169901,0.6968546256050318,0.6972056715301054,0.6855979028775377,0.6806390106017954,0.6794073334668627,0.6685025932416964,0.6629770025766897,0.6562633692788127,0.6521296250139428,0.643139353668229,0.6393666895788583,0.6348315300457966,0.6340106417037403,0.6229256535379157,0.6191815229714378,0.615268007329038,0.6026249817386591,0.6014889253197497,0.5994608331533218,0.5939638469536621,0.5885125513973322,0.5842422243898852,0.5784435000629751,0.5755391610114649,0.5684000806065881,0.5675855453255627,10.67661290276477
train,sample_0003,0.5593062796856746,0.5665765437037624,0.5730611045288592,0.5743232938995431,0.5787925278375003,0.5832641470375534,0.5884172307382681,0.5939449061380768,0.5991279960469776,0.6042051877454728,0.6064816371452844,0.6145390744747926,0.6188039472130556,0.6255378315282846,0.6279553357862275,0.6349573517288155,0.6385527492879245,0.6424959817014038,0.6516516085386562,0.6589674338279556,0.6656617180489237,0.667521428406435,0.6736950632382193,0.6792794660629131,0.6829119225274335,0.6914143163406796,0.6895192417686249,0.6957870275354752,0.7050976730761205,0.7118978133717538,0.7109723858980109,0.7203504006103364,0.7149021410959757,0.7169997672649132,0.7235747156047228,0.7272633998624757,0.7244779403099401,0.7306980054421628,0.7350977961230615,0.7327539264635738,0.7334913297083461,0.7369488828405545,0.7355023685027656,0.731621678192958,0.7351942758514514,0.7354981660762216,0.7384970104147025,0.7375138733785798,0.7315331530396902,0.734495232037479,0.7356245538285076,0.7344053841606493,0.7301346204253522,0.7292243037398511,0.7264892584487983,0.721632232956883,0.7240896503854681,0.7195456387820832,0.7166403202274326,0.7185878636126762,0.7133004813204138,0.7136136673560685,0.7135676367331196,0.7033074117809931,0.7015402225872588,0.6976209883810734,0.700123579502613,0.6958060596331406,0.6979996929724516,0.6905482662618826,0.6914721966767498,0.6863398153738892,0.6839116787378918,0.6856378920419393,0.68289594360553,0.6815726063391465,0.6824632569450155,0.6830655454972323,0.6849946379361673,0.6820100854778173,0.6840841559538651,0.6799869958843283,0.6805041881327726,0.6864342525807527,0.6866281756614123,0.6866404043519652,0.6847903515245546,0.6876052205128127,0.6929825278887617,0.6916451091960256,0.6959995365280086,0.6952250008042097,0.6991669489157121,0.7029944652930401,0.7067860867061576,0.7072775703182517,0.7086038535879977,0.7099717705678885,0.7135731001332137,0.7166335383077908,0.7198155395062324,0.7203041330047888,0.7272862354602286,0.7280795776135979,0.7277034034844108,0.7304297108716646,0.7299609336973576,0.7415877582066175,0.7366681084162138,0.7412760819699195,0.746329894891482,0.7378892086651011,0.7464526999611191,0.745098446193055,0.7490781731254105,0.748903723408179,0.7478467199879015,0.7414129561620851,0.7459723846122828,0.7403205802667037,0.7407878499152392,0.7444288274464801,0.7395366168720264,0.7347062126228747,0.7360118443309613,0.7282772570498465,0.7258995210065919,0.7206824250678958,0.71979356556901,0.7130186424155861,0.7127679272678191,0.7126007538851473,0.7068004903068226,0.7072184822812712,0.6994456139806746,0.686420333481532,0.684205799702611,0.6779284107362558,0.6697177478260239,0.6705471523715456,0.663390242219804,0.6606004393142071,0.653706152110207,0.6537410622781928,0.6437502686619752,0.6338679537800873,0.6271500236189013,0.6203146201971704,0.6179487201244028,0.6149871987703155,0.6100836239674372,0.607211154193878,0.5970605558104708,0.5932023105788171,0.588018916063982,0.582847325319573,0.5814097705305765,0.5754700025678913,0.5747088643217237,0.5671735388725455,0.5654071550347506,0.5569879995625764,0.557945013249986,0.5492578224321292,0.5499043986791816,0.5426129791169688,0.5422220171368904,0.5414873551320794,0.5365303896904727,0.533808617380239,0.5300905415661121,0.5290019279613308,0.5273206797127679,0.5237659148832879,0.5228489946718067,0.5252580200065126,0.5238353522387006,0.525810673863049,0.5135282670584544,0.5157529698429092,0.5130684760271874,0.5125888988614643,0.5150939023508865,0.5075222382777228,0.509696059732537,0.5157893059139103,0.5109111526853971,0.5042298448770256,0.5047966894882937,0.5040613716363747,0.5077771587234956,0.5037305464645632,0.5063363001342145,0.5083047585189204,0.501760042724348,0.5064508584751918,0.5023779263994559,0.5043818335616626,0.5013901022534667,0.5072154977614203,25.087010982185095
train,sample_0004,0.5439794933694556,0.5460507157757307,0.5499065482319424,0.5559214960560476,0.5604362638124006,0.5644706201098798,0.5667533000952544,0.5702250771677464,0.5680976162769623,0.5835291044646655,0.5844168005586186,0.5863209776655832,0.5879199532981627,0.5973756395572736,0.6035386210800094,0.607768387423104,0.608709268857493,0.6111236964311373,0.6237191383889563,0.6270403266985245,0.6253308668857956,0.628705458064862,0.6363368327507603,0.6459266715274055,0.6511167231040966,0.6559066375320087,0.6606942339405062,0.6652374545485396,0.6666843243258664,0.6714721324263643,0.6796907287820645,0.679270705823385,0.6867881027732842,0.690116641351469,0.6971427960654865,0.7049556094648979,0.704244081389634,0.7086564400040379,0.7113277454337521,0.7145821586648867,0.7206091480967682,0.7251537717416043,0.7297677071253255,0.7324210248317709,0.7327939791593446,0.7343544085539766,0.7412354129600277,0.7468070896705135,0.752793235750185,0.7472444140150051,0.7576651376986419,0.7558644171466096,0.7573307952648087,0.7651251259525235,0.7602836092427143,0.764095080095367,0.7697700174997963,0.7640535014007974,0.7725093938331893,0.7709700457696098,0.7700296765735113,0.7714794182674638,0.7785789577083697,0.7772363172018081,0.7773190535559136,0.7735518884329544,0.7802846944430732,0.7818730433814649,0.7797018478318971,0.7795592120849522,0.7730584291412694,0.778991460745593,0.780276105420388,0.7773472790166076,0.77412308040101,0.7789380013455407,0.7790945439666646,0.7760478130817874,0.766989906014413,0.7713096784326523,0.769614426546913,0.7654456180690181,0.7641824868206171,0.7584163653235053,0.7618306065464147,0.7563003934108132,0.7532355658150687,0.7503344891504189,0.7458374563682332,0.7429111979640364,0.7396846372320028,0.7357347924426827,0.7370363116899306,0.7291184207750147,0.7253101499088224,0.7186109515242767,0.7199532642568078,0.7153580107052012,0.7092336820675502,0.7054140316779061,0.7015389523532244,0.6957817602445774,0.6942022963615841,0.6909752361785697,0.6848445271721711,0.6818279310746365,0.6758667144461833,0.6688288221900274,0.669528711691998,0.6701585299405224,0.6633414738316495,0.6596621342801987,0.6545820753533313,0.649739330204073,0.6511933956238025,0.6449509617639961,0.6436727250205615,0.6396726975566775,0.6355521189283907,0.6328078325088571,0.632385757505072,0.6289319925648784,0.621690943758471,0.6249260977281488,0.6244617027216658,0.6213582152851378,0.6213170705319448,0.6165061148139341,0.6142278874265035,0.6085054986898663,0.6126394316402625,0.6127769023163848,0.6127611234257391,0.6105423864631004,0.6093302767422516,0.6076974606278245,0.6071871044928498,0.607301549841324,0.604751199663528,0.611597402753546,0.6076919476562237,0.6009186663543055,0.6012218521451401,0.6028800952696513,0.6003272275825544,0.6060693864114275,0.6018830379605249,0.6014389148571511,0.6016462657658929,0.5989403081888599,0.5969405936916038,0.5991985838822012,0.5951521831285176,0.5998524598945059,0.597259675480004,0.597695797579891,0.5984213437757978,0.5934133458566971,0.5905477225512975,0.5934432032261499,0.5910385577889852,0.591197462220324,0.589443053690982,0.5915754340686021,0.5836291747768364,0.5830393520044941,0.5840034227126831,0.5818243995512326,0.5821240595314273,0.5763951747468153,0.5756571886436851,0.5771236918634474,0.5733317167264997,0.5733850683160681,0.5716427596658187,0.5670902926422681,0.5670136575289306,0.5680462651456786,0.5631573725926666,0.5600901232842785,0.5534578981926731,0.5508761600172877,0.5542253777453509,0.5509560528929205,0.5438307762899208,0.5455415653772705,0.5432362387600134,0.5401366880033427,0.5341749148922149,0.5365955015324317,0.5365040347631256,0.5308964307494509,0.5314177921320556,0.5298437128158496,0.5287121966081101,0.5249118924561718,0.5251632784478342,0.5250486733849972,0.5225836106954391,0.5175213288162787,28.8633349288083
train,sample_0005,0.5638562235684568,0.564339505605286,0.5702003284558244,0.573528281549521,0.5783895729607428,0.5802585200283524,0.5863925707225291,0.5885540590303224,0.5936757742946293,0.6007410979098062,0.6061907898440566,0.6101627869128006,0.6181317472794103,0.621501824720019,0.6250986925415328,0.6282893448523064,0.6354208628798943,0.6431485090173806,0.6478936944284108,0.6538068734184366,0.6557565681298171,0.6690971734721318,0.6654871191708281,0.6720104729206573,0.6776156151566454,0.680491900390931,0.6852968388840952,0.6897152548336778,0.6903529948937899,0.7019114573371789,0.6982691113013235,0.7068990280084355,0.7098149017127413,0.7126319730633613,0.7070121462567468,0.7180208293674576,0.7171627076153946,0.7165890377994483,0.7159384692294961,0.7147376604028501,0.7185412024226341,0.722463026107291,0.7165493664570786,0.7214413022515532,0.7154259565046619,0.7138073890370095,0.713976263024984,0.711871528985247,0.7102358101507411,0.7077454088649942,0.7028081459616973,0.7025732384830115,0.6972912960670647,0.6963981385134324,0.6921454851631116,0.6924602008099822,0.6848580898714832,0.6797521113887817,0.6753875791576334,0.6731863310438027,0.6669533362693274,0.6652496217611996,0.6637384951610981,0.6576278543973086,0.6525373472525026,0.650160138339419,0.6460076323308805,0.6428889822321802,0.6359775526974579,0.6360648481963951,0.6307044039163044,0.6294616489720729,0.6227196636187552,0.62300468365569,0.6227859796228334,0.6162414622860262,0.6172426521135714,0.6115899104521614,0.611202126022485,0.6104129780813589,0.6096533800977373,0.6032663605385877,0.6127293198176762,0.6083620859473695,0.6052773976646002,0.6022998780145691,0.6139849138024571,0.608743732854853,0.6077864630080355,0.6027975929104303,0.6107331118030626,0.6134956294019062,0.6124893357581052,0.6183707218350778,0.614558766359361,0.619178598349092,0.6243254877622579,0.6176784872416634,0.6250813534112956,0.628833076652055,0.6313888222764861,0.6324866997823683,0.6361175402452577,0.6363607156513028,0.6384648006810528,0.6435910617264324,0.6471297959734955,0.6468498284356963,0.6457011242388541,0.6540374396336607,0.6548763289937276,0.6603316927582464,0.6611410627672701,0.6675844950165639,0.6682195494925631,0.6675031782692306,0.674486415381835,0.6771749935015354,0.6731681098245419,0.6772311849481893,0.6825312389574918,0.6837791184616069,0.6870809120693142,0.6916591648187658,0.6892699514902992,0.6937106573905794,0.6932755532156254,0.6948524217644816,0.6935764964989262,0.6960532700326605,0.6938788109997263,0.6985186301291325,0.7004041489366521,0.6990474384427996,0.702358952561727,0.696086103872179,0.7001932834347971,0.6992987940777932,0.7009241886177764,0.7020383910440952,0.6972437784096184,0.7043271669243821,0.7013894912602581,0.6974447824808236,0.6996432864861063,0.6996430753006949,0.6910646167020137,0.6927029839048973,0.6960358293809943,0.6920402267388415,0.6951174204309758,0.6925875800486841,0.6898850926125012,0.6882922367583144,0.6867523050722149,0.687785550413454,0.6825840180365906,0.6788362764872954,0.681024630849776,0.6781258152278103,0.6729098900875554,0.6685110477992356,0.6682198518891149,0.6676665547577935,0.6602183659856364,0.6589846160424528,0.6530008894907255,0.6541094651621226,0.6494147501001766,0.648102351376656,0.6424044867832557,0.6415887138525319,0.638257582327991,0.6285441372773544,0.6311097004509345,0.6184775443378951,0.6206584835022209,0.6142626295696197,0.6114695888708384,0.6009968724387499,0.5995820262877544,0.599389937935321,0.5931108409449828,0.5888256788778672,0.5895276921579127,0.5853434732346589,0.5790769851547308,0.5804641348899348,0.5742449404449281,0.5702242071271253,0.5706472868641752,0.5604890727178731,0.5571070123917539,0.5544090166177448,0.5537741924971913,0.5518965260849306,0.5448076864000273,0.541938087198257,0.5422213410027514,0.5380357492637491,18.597003984291522
train,sample_0006,0.5857141069153198,0.5843682767921166,0.5930345835055487,0.5978326269339442,0.6014255536830312,0.6110005581331723,0.614729449713362,0.6229244583681486,0.6304548783329341,0.6378388106083556,0.6425076414059883,0.6503543137702767,0.6592166968272515,0.6633143309206968,0.6743595617791351,0.6797910612077742,0.6916125208066193,0.6972705599567457,0.7032950290840784,0.7130031349855894,0.7163523910067816,0.7241189378931631,0.7314054536929206,0.7367308075643336,0.7420280951661635,0.7473958327648732,0.7574205535281311,0.7645409343992812,0.7630522856665418,0.7718351414842971,0.7774885846679005,0.7837658122328169,0.7892153815998757,0.7855978253521505,0.7990952528343986,0.7962266676410973,0.7956515760094205,0.7988248085893521,0.8042069466960985,0.8030318791023074,0.8081192195086879,0.8072162469137377,0.8093949370205653,0.8098703349350803,0.8054229660697325,0.8056749923314557,0.8051821724429175,0.8071416524662817,0.8043739686120852,0.7965684378027006,0.797574067704508,0.7947627892174529,0.7930370339253902,0.7883582184170271,0.7839889214936167,0.7743081069940174,0.7789556477972324,0.7668215163682868,0.7683665315326548,0.7599978648554675,0.7571619968430019,0.7536149852993332,0.7477589385251262,0.7414281080676732,0.7314415784548061,0.7301802881926436,0.7256390886536962,0.7210107013441293,0.7202657330221103,0.7090799383221708,0.702221434388016,0.7037649676215691,0.696939809940558,0.6936194049648651,0.691091228582629,0.6874871758207275,0.6789870792159706,0.6777799474706915,0.672714246548565,0.6701703426741372,0.6666092549257996,0.6655293121556576,0.6633797628583911,0.6677499522494317,0.6624861925084479,0.6519547511879269,0.6581625956804247,0.65607718843525,0.6503978965193689,0.6514566125000767,0.6559546279896472,0.6495957958518864,0.6541282225863002,0.6531529637056233,0.651186736420805,0.6491405448995504,0.64936328512236,0.6478875970105873,0.6501575341116224,0.6495906111138668,0.6517225215717231,0.6475131760285237,0.6489029240662805,0.6534984888970052,0.6528549377834475,0.6556434656634333,0.6574365608757269,0.6552868199624993,0.653637384814867,0.6604514404353792,0.6617398500050413,0.6591468297619649,0.6604976261887943,0.6622879996239996,0.656858632841909,0.6561963383784479,0.6581921392403619,0.6558093035199519,0.6570904771422215,0.6603762397516436,0.6611942146564002,0.653487321374973,0.654746876839172,0.6536761725383288,0.6545833903157022,0.6500679116557961,0.6487091715072351,0.6435492174842046,0.6456137597101913,0.6437123424375182,0.6433274669446409,0.6414921599157196,0.6368871090983124,0.635875038971292,0.6295092974595754,0.6282427243861195,0.6299543458698571,0.625383388870867,0.6236212715381823,0.6177264685534138,0.6134197471863889,0.6106914411514518,0.6100281664503364,0.6078705442223675,0.6057884715033858,0.5992550602639973,0.6004341605452695,0.5932844556133492,0.5900711147573724,0.5912078122884887,0.5880256892041805,0.5804480239930465,0.5802968756951774,0.5791022378665397,0.57568192309962,0.5766571332229292,0.5691086574558761,0.5683127590160143,0.5626612579208151,0.5576359923108425,0.5601392386389412,0.5567933336413803,0.5581977620784097,0.5560379316192449,0.5531345723261788,0.5465559095828855,0.5445428037159884,0.5445311323399786,0.5400508591637233,0.5442097104046812,0.5404739227233164,0.5372161122093171,0.538726043036394,0.5335372232867462,0.5331379518487348,0.5320407845642154,0.5241525008922012,0.5277704871993236,0.5250039645760571,0.5230224025049776,0.5220864888072888,0.5229297598370941,0.5199106980268562,0.5200309314061009,0.5162256122146478,0.5178932997115432,0.5215349936722044,0.5169771979189295,0.5182319661685658,0.5167580135462932,0.5120110413337673,0.5149852731148524,0.513791018831447,0.5173008002004369,0.5086434835444997,0.5140607316653822,0.5131203227977966,0.5119353241749925,0.5081382180340976,0.5090308452055524,33.678011787806895
train,sample_0007,0.5287872961343532,0.527141882246187,0.5285190078041491,0.5302952844462232,0.53582987461565,0.5369695813282608,0.5350028899555426,0.5411133370819085,0.5429765353390019,0.5425256352997951,0.5496980962993356,0.5528867825139377,0.5526056585298152,0.5532270718087804,0.5575267203776665,0.5623761711559809,0.5647439929089128,0.5655635110545532,0.5712249711271892,0.5652974228007417,0.5751944117495458,0.574651875643528,0.5830251975251485,0.5828564547087864,0.5874539582487381,0.5842806446573372,0.590039864207681,0.5902669961705288,0.5991560832434911,0.6007638671301831,0.5976427791372287,0.6054961162405422,0.6056517118168365,0.6120197628783699,0.6140590058874636,0.6168679401881767,0.6144692460119013,0.6197987988876317,0.6180244586899191,0.6219778851898139,0.6216492358478957,0.6265622624958925,0.6253805844256887,0.6295694392942981,0.6307871380850162,0.6355439533503124,0.6346161026749376,0.6402808392992718,0.6377374618712404,0.645335845364363,0.6436624399637656,0.6399384160281485,0.6444495200595233,0.6446623682322389,0.6470455313354267,0.6496874467931806,0.6542254784417947,0.6486252299339819,0.6482726559930808,0.6554916729011695,0.6552527573014557,0.6513672732166489,0.6584759754125683,0.65689748187966,0.6578896692353833,0.6596831265471532,0.6630080651820269,0.6583599055837467,0.6598539186895851,0.6601889701230007,0.66136165451336,0.6630978437484983,0.6676922294314951,0.6644495391401426,0.6642714742809526,0.6612968769396557,0.6707311102192213,0.6654276872487825,0.6683584543790059,0.6680949908101184,0.6753715551603882,0.6727688040570707,0.6703808199430299,0.6734116974947243,0.674610653879048,0.6765966503509699,0.6739368714178202,0.6804916697523281,0.6801025138549179,0.6813870218187584,0.6775112818593795,0.6799574445517984,0.6761445416462775,0.6813110858074767,0.6814864721255562,0.6842812272205496,0.6792680525516462,0.6849844132236533,0.6887257965989709,0.6911844562553631,0.682718751530613,0.6836631043262024,0.6872247542965721,0.6925839150877621,0.6881792425746153,0.6904526596385503,0.6921354392688893,0.6898101622179016,0.6946134034842664,0.6946945843664261,0.6972434807126197,0.6942535276844605,0.6984719346452669,0.697953711115383,0.700736010334669,0.7005295538504358,0.7056552986837503,0.7041039247044039,0.7040338021333358,0.70685641233026,0.7045655417529575,0.709134773966301,0.710543433555517,0.7078740287314274,0.7173822230475294,0.7090571801156067,0.7135065685896115,0.71399610930453,0.7171529230901443,0.7151592520155267,0.7133384995789565,0.7198349630977938,0.7229105875569733,0.7198836262125601,0.7228575620851897,0.7235209964087992,0.7258477058050784,0.7200128383194339,0.7270094449505287,0.7279828371729982,0.7230239049544103,0.732483816572568,0.7265000289047036,0.7300477666524898,0.7290066468981987,0.7284914079640026,0.7235917822785518,0.7306231384540154,0.727091171720482,0.7248224207920029,0.72561059378316,0.7235439327914632,0.7250124102859326,0.7264601204217569,0.7239448954577286,0.7244096080444018,0.7172194250429427,0.7147947037977098,0.7145808067015247,0.7117774346611243,0.706770617912214,0.7057237448968873,0.7038255134533276,0.7015346070237524,0.6999479983258894,0.7019912260801437,0.689805365582217,0.6886183113134324,0.6888483454302299,0.6814494404658122,0.6728214649148723,0.6711694696295448,0.6688498189385997,0.6606735107471157,0.6597773040343218,0.6529562885487696,0.6489155360170521,0.6407040345872164,0.6417285808198173,0.6334632877480781,0.6315384210362243,0.6251074150666829,0.6179471783431468,0.6175076497640781,0.6116470353784053,0.610575634123648,0.6005106016320723,0.5958060678685299,0.592274446870825,0.5943643159388977,0.5864544546815493,0.5822343718075511,0.5774392725962856,0.5691808385837722,0.5649180013266811,0.5623454507743992,0.5639802973426971,0.5555729271671421,0.5572407541595851,0.5536692144550267,15.269057816039934
train,sample_0008,0.5205454119344887,0.521919503922039,0.5266702377549554,0.5274370345727073,0.5285436155991589,0.53300162166527,0.5316708835266243,0.5370084268454725,0.5355130900137287,0.5374334690236849,0.5445581066733585,0.5405180315396731,0.5437554200909587,0.5459613945722683,0.5533357825018483,0.5552813130319556,0.5565375037774869,0.5604943893692442,0.5588510452132942,0.5654903484803859,0.5707818620897465,0.5719716924804846,0.573264082035919,0.5739063770540963,0.585911417049606,0.5856592246767032,0.5867079741571145,0.5879422102704199,0.5964518552707977,0.5930876657215287,0.6000465462839112,0.600274691649766,0.6068171815183538,0.6131279865505486,0.6110479721327712,0.6198136844263576,0.6157883485868747,0.6241725295533973,0.6235450265621447,0.6315048114887063,0.6335611128283327,0.6379797536356613,0.6479737844512695,0.647465366904361,0.6454432365182984,0.6499359411502406,0.6576939476026771,0.6618505071551808,0.6671374304597775,0.66696851809847,0.6738311952152627,0.6767661577291044,0.6822742407422493,0.6820777316374544,0.6848605946944524,0.6913360886192985,0.6959596381483253,0.6999662941030071,0.7024740675879757,0.7044120290258638,0.7100878537691383,0.7097389573071611,0.7132771264942906,0.7183031553020089,0.7213084323293083,0.7218965325873914,0.7213800557147436,0.7306464854021112,0.7305811823477619,0.7359194736845074,0.7370117960744277,0.738902459592786,0.7347029103676778,0.7390188717643659,0.7426926913292232,0.745823196883675,0.7431974390765866,0.7477935247407741,0.7461427013768152,0.7441755067405572,0.7434778956608021,0.7500533015203609,0.7453405416706996,0.7440707021664186,0.7441593255588169,0.7410830454326998,0.739209874950304,0.7394514191940351,0.7428586461368205,0.7358658539688052,0.7336519837852873,0.7353177920508943,0.7274125812807566,0.7311808711161855,0.7269418709865325,0.724727157477304,0.7259430575014141,0.7148619720890812,0.7138848513864156,0.7156305960546121,0.713878854819406,0.7099176234230504,0.7118316799812224,0.7038742757302201,0.6991310281743365,0.6974864310137016,0.6978637118609792,0.696553691960226,0.692069443539421,0.6882392816546646,0.6843812432876342,0.6800607228631728,0.6828290845171332,0.6781978206419474,0.6744929755009119,0.6752272866566993,0.6759817016394141,0.6724189020484415,0.671660295023303,0.6735176335579446,0.6697448195603823,0.6685968819111282,0.6662619846942998,0.6623906644542428,0.6675364060277311,0.6626343459149187,0.6620226136471992,0.6695354249578848,0.6631830317524267,0.6594713274726491,0.6660807318141265,0.668398901190619,0.6684323016239037,0.6632799768260096,0.6670455100418025,0.6645899684897126,0.6660257314146795,0.6715545789798112,0.6680863262356834,0.667062552633843,0.6704174618165031,0.6642423279556684,0.6719295397987948,0.6697835597174349,0.6712890773603195,0.6703182289805134,0.6696187655483213,0.670087350868934,0.6714837952732866,0.6708148457667663,0.6698456890045817,0.6687711265742615,0.6716891728255401,0.6691011452435502,0.6693056334608831,0.6644175160485317,0.6664768035936628,0.6620534840077221,0.6619432397568719,0.661447002415751,0.6624131887247581,0.6619986042351111,0.6566222207521035,0.6563429037871654,0.6513120193953613,0.65578246041635,0.6505730814465115,0.6448782785960786,0.6424943906177907,0.6444131923552341,0.6382141627719915,0.6364418855524157,0.6329793496955529,0.6257080038393569,0.6227281206460552,0.6218100366370463,0.6176448258106833,0.6144089382501164,0.611595368663838,0.6084033064600233,0.6061373812785199,0.6004737263152475,0.5974048230323008,0.591215649054169,0.5870948924408785,0.5872857659874433,0.5803800910787039,0.5733832467104599,0.5698317828360184,0.5679223928934211,0.5672534417897139,0.5637602350170835,0.5557678397618047,0.5570683845354285,0.5556799424383558,0.5481766926194961,0.5453750657034723,0.5378433374886807,0.5380150812090237,0.5356685763667199,19.52594922685505
train,sample_0009,0.5068359939817908,0.507266629048146,0.5079205342816766,0.5061669983306829,0.5091432087826648,0.5112172084060566,0.5116931871666177,0.5077095579864679,0.5116337655894112,0.5050685119513173,0.5147956680265792,0.508817754582974,0.5113532663849325,0.5127581169850323,0.5126619297057953,0.5156704516199122,0.5106954785874351,0.5168013572587956,0.5145310578505358,0.5135010685379439,0.5148825155617058,0.5150808572376653,0.5189866394305602,0.5182563383575741,0.5149251220405344,0.5183070225402713,0.5205278970957721,0.5166078912506038,0.5250966998068949,0.5213126109187776,0.5239403089584089,0.5229699233392724,0.5224135170590559,0.523470679575305,0.5210085388109417,0.5213061791523329,0.5204359852294902,0.5230107338748297,0.5257991444519212,0.520144286773763,0.5232017050643992,0.5229211895517393,0.5275649031595299,0.5266958252496325,0.5308040844210572,0.5242780824635588,0.5240675294403835,0.52756306215503,0.5335564654305718,0.5233312425346298,0.5261715437715457,0.5262370899114699,0.5325053641748055,0.5320242264983999,0.531965248526258,0.5271095052326857,0.530200939328302,0.5345219863500698,0.5302372050846862,0.5276255395814914,0.5361266558343807,0.5340215600509182,0.5369076505394693,0.535101830836424,0.5361367244797172,0.5432653629311763,0.5446666962510361,0.5430108285862614,0.5429472402553984,0.5462374984601105,0.5511749973432022,0.5493864211142546,0.5589233626627308,0.5522540745075986,0.5574556799265965,0.5660349630424267,0.5628650221543008,0.5650944933379833,0.5684180325289377,0.5714787336014806,0.576810498131312,0.5824949307601449,0.5857492937207524,0.5871526681823703,0.5890494434970843,0.5923499618131446,0.5997625665760599,0.6034447103163854,0.6107990758630677,0.6149081561063537,0.6219008870664033,0.6214218072274167,0.6296615960677743,0.6364741086686079,0.6425262977597266,0.6445197580771261,0.6530894013247789,0.6561951465793678,0.6579109563610903,0.6688257611118367,0.6736532744382361,0.680028751820632,0.6896453989806811,0.6919597296005079,0.6975077803001454,0.7009298037648284,0.7063765081080495,0.7158757802458583,0.7188083503517727,0.7281796877205167,0.7307479844594436,0.7389009490669146,0.7413829646258738,0.7477865619531908,0.751875224870562,0.755921545171369,0.7649719907233009,0.7667238340396262,0.7752791459893229,0.7768268289480611,0.7800481852960809,0.7877286215579516,0.7904417870384058,0.7909783179007936,0.7954572420230597,0.7968431628690056,0.8048823827241273,0.8083557775996235,0.8117468872164539,0.8185227945759788,0.8173595287972932,0.8196485189313468,0.8266624461725858,0.8227302362116656,0.8286437606717277,0.8327937826840592,0.8372966689959718,0.8374311232632246,0.8359945068641148,0.8394819088197891,0.8406619792363369,0.8389058873309283,0.8423301930734648,0.8396797413309771,0.8422657250995688,0.8453514756207663,0.8448415455433446,0.8443748794177901,0.8399934048151085,0.8437476759523821,0.8430616963021937,0.8432878322420823,0.8413699866967356,0.8317495389603194,0.8337176218904121,0.831713483341177,0.8328914717992051,0.8314593803729625,0.8257570715591105,0.8165619994721152,0.8149014386923512,0.8130134708195265,0.8156442372335462,0.8075396165908217,0.8001966522945307,0.7917348857334345,0.7921364896710794,0.786857030717929,0.7774052049909448,0.7710901464707752,0.7639161509622097,0.7603634388671494,0.7531876205438299,0.7469715905008217,0.7401700110899957,0.7326252664789925,0.726630131790441,0.7195068443855234,0.7077720197622692,0.7077115286329463,0.6945796846632903,0.6873592202510043,0.6800574312367416,0.6775501484917072,0.669188610096865,0.6628579914418878,0.6536745916107857,0.6471819120337712,0.6445526272744865,0.6325031152439349,0.6244889030173787,0.615012616641387,0.6110058015916684,0.6040923418670533,0.5994492699596723,0.5938058704309326,0.5919437160749103,0.5806668227367217,0.5754309852115783,0.5674997488468286,5.0
train,sample_0010,0.5001702919659377,0.4990855809111469,0.4991888920987738,0.49869623758161347,0.4991877810803401,0.4978980246674599,0.503716270364714,0.5019198738522678,0.500188525306783,0.49631527430326255,0.5002875204858876,0.5016952428262726,0.4986546673869682,0.5048914863552693,0.5020981378689389,0.502905499230353,0.5037244400215632,0.5026599404921855,0.5005747241330287,0.5061361700997862,0.501450468070829,0.5065114783328613,0.5038184420394052,0.5026655447587439,0.5064544584077707,0.5055113461848272,0.5100549859918847,0.5078762891968809,0.5022962255990866,0.5078443646487313,0.5052961483167165,0.5102262248537599,0.5086471272953195,0.5132167250327069,0.5073584199623716,0.5124087094092101,0.511800443429644,0.5129253241553676,0.5110036457983594,0.51566814580627,0.5140794126287224,0.5185042819323176,0.5136936611715901,0.5168246698859023,0.5216698188389354,0.5193682190397104,0.5264789091171369,0.5253629640664924,0.5259340364472546,0.5275613195492092,0.5234610819284882,0.5260366212377241,0.5285613574199678,0.5375607615457434,0.5313487285038525,0.5335996022665669,0.5372915863998107,0.5375280759412621,0.5429387371937373,0.5396791824714904,0.5410617207330215,0.5415858171387645,0.541468985470013,0.5394921072597275,0.5440973292344334,0.5509840709212768,0.5530310188258635,0.5530321847526676,0.5504357486621866,0.5535220564128563,0.5543014154262924,0.5560059254343132,0.5590882269736316,0.5533086866722042,0.5595721216671373,0.5585031842337355,0.5588339355545442,0.5598477438465514,0.5681975982816223,0.5624310447511052,0.5631905270549397,0.5658914463703181,0.5622618072587455,0.5648608047967218,0.5654211652847052,0.5682189552980126,0.5688809944731029,0.5666594074378115,0.5743214640973369,0.5679474931964065,0.569067393331369,0.5734646803968086,0.5742537294714822,0.5737927813700421,0.5722643253243059,0.5732398591661547,0.5772634299960113,0.5763111859364541,0.5752504580555233,0.5827332179723326,0.5810666901835387,0.5845431326163075,0.5882894006085745,0.5922852543968142,0.5923604052516848,0.5968224995722133,0.5981975534523538,0.5977499345786642,0.5998045838542816,0.6115029431671226,0.6100579435364477,0.613201948576948,0.6171261619739663,0.6298004022278851,0.6271959724245166,0.6328057625613115,0.6407921312701086,0.6421726370607078,0.6523978206451251,0.6567562223549093,0.6643817787680951,0.6692748107077056,0.6777647521828161,0.6829942782202231,0.6894010617060611,0.6980806410306637,0.7057424845615761,0.7151342756542379,0.7195328843013016,0.7347871554050444,0.7399817232997334,0.7509708760521028,0.7656401591039889,0.7697127255142593,0.7775788138236834,0.788988570518193,0.7903708015411064,0.812100837405906,0.8200214473109311,0.8288600787199312,0.8306986581470888,0.8401573856226164,0.8483120568469598,0.8581950234414006,0.8654681991441071,0.8719438678988458,0.8805965787496293,0.8880778700430402,0.8953836797840273,0.9034594824690717,0.9027922456857206,0.9071136335580239,0.9122679189689997,0.9158864085327962,0.9166696473911602,0.9193439759080295,0.9267467935594473,0.9283285375771073,0.9281305546083518,0.928599711589392,0.9268709080561599,0.9238686440243853,0.9223911295791323,0.9200193852021418,0.9192606695051866,0.9136500410351489,0.905740862682689,0.9072718586686268,0.8949300224324738,0.8916392654237374,0.8905879968298063,0.8772452523427586,0.8721446305826227,0.859962996241353,0.859093431593587,0.8494924348083105,0.8377026612814042,0.8238057028741197,0.8150684996339188,0.8098860876670589,0.7991483544312417,0.7886535945514133,0.7747737050476241,0.765688502987331,0.7538324189892793,0.7455904217380175,0.7335025770843799,0.7211409634431317,0.7181481107935039,0.7075273938388146,0.6966286673100073,0.6865790862956334,0.6768043633706256,0.6696981348600552,0.6560989235952728,0.6466634603820508,0.6433255922960076,0.6282175192183093,0.6221801090121175,0.6162181726868421,5.0
test,sample_0011,0.5703874626610059,0.5734094659108582,0.5787505658345857,0.5794288709439267,0.5896089030740667,0.5869921791876186,0.5958511170701744,0.6039413657559161,0.6064876158625228,0.6135099879254087,0.6196878180715665,0.6242891648945571,0.633644043359027,0.6357935785891807,0.6471498638620252,0.6484119277357887,0.6549726598221137,0.6616134166405103,0.6680620024609089,0.6737972227311153,0.6821513745932819,0.6848529033826468,0.6926754295084079,0.6956277977314681,0.7022322250477288,0.7105221174774385,0.7095842841874802,0.718584133737845,0.7209006381494791,0.7261872599923963,0.7319095151111,0.736392062103346,0.7394142236202932,0.7400457535416906,0.7470935227027226,0.7449986944037439,0.7474029969143523,0.7539863168869455,0.75597302742358,0.7557080628807389,0.7582190682985841,0.756355891674557,0.7552181076412042,0.7561463308679027,0.7563001510570668,0.7532949965647097,0.7538491723929939,0.7559153057877477,0.7515967094000904,0.7483182733417743,0.7469403583927874,0.7469667290203645,0.7400824496779859,0.7394087322344213,0.7403769255720789,0.7304209268716657,0.730028962771303,0.7244120256743593,0.7192484404329939,0.7211489031575613,0.7096548357112834,0.7060270413371852,0.7077825197484813,0.7056003140502073,0.6972746920059321,0.6907171189116199,0.6908693558980875,0.6895158165532846,0.6864391240524174,0.6806104971816053,0.6768033318440219,0.6757425311374602,0.671002145137627,0.6695755367723504,0.6704552368175138,0.6672579899895414,0.6580631862133743,0.6583604651821064,0.6581128929205479,0.6527887339181199,0.65277405632595,0.6552684597248817,0.6515136462564984,0.6489832577071682,0.6491560676902997,0.6496485058924852,0.6447922000002102,0.6461793303820307,0.6459113055189931,0.6538557644738769,0.653522449081317,0.6507417586601568,0.6541838856174119,0.6532386527470677,0.6525449717080265,0.6539469330635502,0.655123524153875,0.656180928002633,0.6598803555155753,0.6600173586948908,0.6619582720736658,0.6682185692160654,0.6700868894944305,0.6668147798081719,0.6694889800428773,0.6729797940575255,0.6727102447231403,0.6764169837769223,0.6707170871101623,0.6756041799465995,0.6790635521995145,0.6785654555665666,0.6839611900346643,0.6842003130004007,0.6870486070645655,0.6876110770627826,0.6846169601264818,0.6885493900749172,0.6895731612312763,0.6892566481532632,0.6907563969363312,0.6850026245474188,0.6824158476604528,0.6905509601289008,0.6869685193323101,0.6810238729561822,0.6834576073174614,0.6815267120836,0.6802199681400969,0.6772842886074588,0.6740464304457963,0.6741019644075039,0.6720387752169631,0.6706460419861972,0.6681659496272128,0.6691593396148049,0.6669676614741371,0.6624005701136984,0.658711728693376,0.6583706127415855,0.6518272262463946,0.649822325511173,0.6516993152466605,0.6442173546035865,0.6394950363975346,0.6336536792313452,0.6359546584132897,0.6319126881458637,0.628520660650284,0.6299099965746568,0.6233841634018941,0.6195849709469873,0.6188755397329706,0.6154756390488633,0.6105468494589852,0.604650082010135,0.6018181488974773,0.6019374472997936,0.6014656698036992,0.5981037561801155,0.5962373638519968,0.5920484885837342,0.5855802647127591,0.5829959177253488,0.5812654279982349,0.5775015292715445,0.5805015835324823,0.5712146145757279,0.5689161776082725,0.5654989230611319,0.563332249851201,0.5644948189441333,0.5638721907729948,0.557250230684063,0.5586798929030068,0.5552352047486284,0.5511900174071785,0.5503771081604187,0.5474066851299492,0.54825354157991,0.5432959887469454,0.5398516868835382,0.5341944020363283,0.53759873989269,0.5366213881164801,0.5323391518364909,0.5350103465128251,0.5298307811412093,0.5360197213394298,0.523326710604372,0.5194358675606813,0.5238576439231144,0.5199451619507321,0.5270842541903277,0.5167597253196544,0.5195240287789298,0.5185518592880715,0.5130381501207782,0.5141942512002973,0.5168222808291666,27.695724789610594
train,sample_0012,0.5433029367688593,0.544124185369628,0.5541472729437527,0.5571353799961081,0.5614261375488324,0.5668381080527773,0.5680297525194042,0.5714733601293241,0.5789930752307059,0.5801338873332474,0.5883242859346085,0.5874268484796847,0.5900251455061087,0.5967813295904005,0.607440003124849,0.603025711538894,0.606755423433669,0.6134063165041929,0.6223856976822119,0.6184713071250298,0.6277679189773036,0.6345932090240658,0.6348820005145288,0.6389828496784675,0.6403327203666083,0.6451981911548369,0.6501916266311194,0.6495982880154421,0.6572111574509332,0.6606389838781743,0.6611071374284879,0.6591186173154242,0.6615932290546436,0.6647997928251639,0.6688835252584441,0.670869331601079,0.6706912894191586,0.6775393038903099,0.6752743444866007,0.6743956031970987,0.675494871754303,0.6745275917302573,0.6765485698202868,0.6739502691972445,0.6745639157097052,0.674956911020138,0.6704877159125086,0.6691793330418727,0.6676030795633634,0.6670494492341501,0.6674343961009344,0.6642546899659376,0.6644794944976125,0.6628419990322943,0.6611549175556264,0.654275184645957,0.6555744106361744,0.654775143698134,0.652828877436361,0.6451254921951983,0.6475182926437822,0.647960311225487,0.6435029071818271,0.6414659736092253,0.6390051845429713,0.6372884432840238,0.6319775686838874,0.629698635756168,0.626476083928083,0.6346727933142,0.6309220539426738,0.6346810304436119,0.6348823280835293,0.6304634734696639,0.6311723669272774,0.6297702647255898,0.6338276547522179,0.6383553537971841,0.6336375592375145,0.6357807623265905,0.641287810524644,0.6415595036130657,0.6453735491649496,0.6501955913262149,0.6505174883000915,0.6564866870426496,0.6593554198765993,0.6653013487400437,0.6707718759690039,0.6730783046279684,0.6818191353477004,0.6881321900297187,0.6919932103582478,0.6981165595421125,0.7081822727630513,0.7121055345810267,0.71399880168035,0.719471480886071,0.7300567421509767,0.7381876948810702,0.7457776898936087,0.7477681094866612,0.753097281952545,0.7609350645903978,0.7691482291150381,0.7673583486709189,0.779442058953636,0.7847254103884053,0.7853886565978518,0.7899943067805535,0.7984873073046083,0.7975677151404856,0.8055384497421285,0.8036460806090413,0.809489906916868,0.813163154259736,0.8158979302000576,0.8165414228573382,0.8113064159188301,0.8133516121906097,0.8174301482424283,0.8138361860678769,0.8162922765408215,0.8148742048351126,0.8171182902930823,0.8126615955095788,0.8075645337160271,0.8047011887761211,0.7991743224950343,0.7960527525712788,0.792978631455529,0.7829376341209922,0.7795054649318112,0.7749984182558081,0.7682667014516646,0.7690676317915999,0.7619864175485342,0.750531605840549,0.7460001463424113,0.7397277470094111,0.7351902891080435,0.7255752802653236,0.7200349617836082,0.7090682934683183,0.7045535942112251,0.6996756565242807,0.6869850993629014,0.6862678745027897,0.6758020158183358,0.6680231042684828,0.6639325683809856,0.6574018947967358,0.6462069560475349,0.6402845068765021,0.6333831699802073,0.6281180197793834,0.6226586764336478,0.6182618383883666,0.6123374355928837,0.6046291335526074,0.5992975672968598,0.5933074229676333,0.5843579401065719,0.5814670839214489,0.5807170903425225,0.5771637179614816,0.5748208025493214,0.5681368301908248,0.5610203568302292,0.5619295428622629,0.5583867323440196,0.5522120095309377,0.5480664489245965,0.5493537452651058,0.5465861739206532,0.540516362774109,0.5409614805124322,0.5366797760146363,0.5307313821229115,0.5296437902273675,0.5291213071009823,0.529427904749457,0.5235873587027692,0.5213538246668724,0.5256080290467304,0.526469250592894,0.5223115912014135,0.5187396627988362,0.5214016747620019,0.519720326895596,0.5163486637293344,0.5141226719532731,0.5127129853303579,0.5096716236000247,0.5073979784268612,0.512480621275995,0.5088619409026816,0.5046456251741347,0.5112639577120162,0.5098297341538551,17.924770092705334
train,sample_0013,0.5251154281903925,0.5191163894039666,0.520062448769951,0.523701203807436,0.5274702055445916,0.5292601865122665,0.5292284742345066,0.5282989859562904,0.5357947585360128,0.5326167298734289,0.5309818382876961,0.5351314824224275,0.5421637537677918,0.5357820131090725,0.5410374896128829,0.5472839255238557,0.5487920720883145,0.5517827175570881,0.5550410810879082,0.5581175683817523,0.5599644777301526,0.5583577795411703,0.567573564916747,0.5699526823444798,0.5749429861051518,0.5772927304881803,0.5786203248317534,0.5792246955057806,0.5852747331765018,0.5866265510155639,0.5942460859998295,0.5934569871046942,0.6000406998773528,0.597470529338593,0.6051113347575422,0.6089669016546071,0.6142632518639591,0.6174229002891476,0.6199037912657263,0.6208081560705258,0.6306113557190449,0.6298153289750953,0.6386443115293277,0.6389390597356543,0.6424348897603256,0.6504290735338725,0.6550819060385143,0.6580563947205231,0.6578617439946992,0.6659260769825337,0.6683872003538289,0.6750824603908275,0.6820935714047125,0.6855580596390115,0.6889450916650253,0.6934948258997036,0.6913063781225821,0.7001931821284555,0.6984065589550091,0.7096145596016257,0.7118995915749049,0.7160164722159985,0.7211895210492234,0.7207820902832028,0.7290012244055594,0.7288418287283374,0.7307879837163427,0.7363280425708223,0.7380994630977699,0.7443679121464762,0.7406172117901926,0.7494504493417704,0.7511177638025678,0.75289166710331,0.7481846566644828,0.7535759185738253,0.7562191991319547,0.7553480716583806,0.7584649651315922,0.7542864645843218,0.7502290007637211,0.756776758851319,0.7575408719581742,0.7579188335892698,0.7553514051834083,0.7569477969155503,0.7566109081356005,0.7496463716910344,0.7458321292952782,0.7508431518782213,0.7412155817001495,0.74119177770156,0.736444215879395,0.7358383659559242,0.7340603925869941,0.7293299962247112,0.7284308767345536,0.7248160724348763,0.7218363279253757,0.7181502082020216,0.7124686726900966,0.7134733099980837,0.7072286880268239,0.7025668116850385,0.7045938196471524,0.6961043567274059,0.6942920987260671,0.6950419172556501,0.6860709168964461,0.6870099780087155,0.6849591560641917,0.6762001014935402,0.6795102979610347,0.67472446671187,0.6752949101584634,0.669229482304742,0.6680375382070487,0.667290454672692,0.6675499621814445,0.6620671559039185,0.6595315273900333,0.6619026318584678,0.6605359444091569,0.6568627742539694,0.6559499314146404,0.6594978256101006,0.6567614955516315,0.6586917229372122,0.6581902371775629,0.6598892152865955,0.6574199243232925,0.6595001851391527,0.6537035376886229,0.6590721220155571,0.6573541907876158,0.6555617403466052,0.6624101149690568,0.6632554920800335,0.658198307243972,0.6661333019390503,0.6633883929295272,0.6609635236149842,0.6637889031679204,0.6632377520446613,0.6676372438488352,0.6693828522810047,0.6682349704686593,0.6696296782347542,0.666356772833411,0.6733244469325365,0.6740778404494128,0.6724867440561184,0.6681970025085595,0.6697372290603213,0.6676549889025718,0.6724146345781584,0.6651464839177325,0.6665892851932167,0.668578752252269,0.663668404003101,0.665313766814963,0.6613001052394423,0.6629767124022049,0.658923136513443,0.6590496426405931,0.6580376527058072,0.6540224519797182,0.6504064542463102,0.6446649208850311,0.6448940944677837,0.6398052739150497,0.6355502274226573,0.641316823023684,0.630341393691555,0.6296938957418761,0.6235339779747106,0.6202136530562783,0.6141392439034086,0.6178159030360012,0.6112116410514415,0.6065479405634571,0.6005453165328233,0.5982988779114082,0.5938423948992266,0.5912705306043424,0.5899118627682501,0.5852783028012264,0.5784304401448065,0.5747224839648349,0.5690633706435855,0.5641189017301703,0.567250228398407,0.5582179169635623,0.5572669825893275,0.5541936732962431,0.5481228729869149,0.5505463720750216,0.5488240479364113,0.5420480174926298,0.5337581345521908,20.8094084084142
train,sample_0014,0.5389780542386235,0.539404410031162,0.5414346586679267,0.5427218176168419,0.5485867716558877,0.5456766911796732,0.5545220233102494,0.5508220139154297,0.5560915912745082,0.5575820631150759,0.5610460994340876,0.5650668765301119,0.5717893924842498,0.5760039417697739,0.5777126637812501,0.5758794509962063,0.578049719774087,0.5881603992753189,0.5912140553628785,0.5912400201267806,0.5972325810172833,0.5972542982767552,0.6017169627974897,0.6009455022524032,0.6078802674086312,0.6057410212512904,0.6096978209044666,0.6110112571331136,0.6171983591304481,0.6182592202166132,0.6227182402729924,0.6236654901493753,0.6247814168395405,0.6289671365213546,0.6260170734408451,0.6302100896596468,0.6292722896798348,0.6310029719665482,0.6346751143804794,0.6346046668234424,0.6317796824419101,0.633721072906354,0.6309302837576767,0.6341777261968461,0.6352750136096559,0.6326834348384807,0.627897275142397,0.6292104214828846,0.6277225923523286,0.6315130040953294,0.6209279089804339,0.6268172743015653,0.6240565552677357,0.6188795896431459,0.6220898583735791,0.6182946138276176,0.6172797815084192,0.613325447208549,0.6133324627733489,0.6088592927172454,0.6099202702367919,0.6076534090612332,0.6078399211653627,0.6016974353921493,0.6011953562969721,0.59927486699919,0.5963079099135393,0.591482430828071,0.5888978212957792,0.5903463784793561,0.590095256319974,0.5864178711046744,0.5831050664065431,0.5852049315803775,0.5816224714287692,0.5819719217623686,0.5819734036984476,0.5806190061546348,0.5771102734950444,0.5759968573403373,0.576536504130547,0.5770288043611265,0.5802854259489604,0.5821410047205097,0.5790693765956452,0.5804002211375003,0.5801110688107542,0.5766873057764738,0.579715144917727,0.5796805072057118,0.5833765287813559,0.5878921225811414,0.5846287433806754,0.5877246278048612,0.5893784934380144,0.592063811990756,0.5964501415904224,0.6003185626900384,0.5968019738952958,0.6013119561200876,0.6047246907353194,0.606401194842815,0.6086197979562169,0.6147524532998958,0.6166678145477512,0.6170717691008298,0.6230927775854812,0.6300130158285809,0.627347689253501,0.6368379433753184,0.6328586953938728,0.6404273116718422,0.6492339522340764,0.6504655348834293,0.6542565210968347,0.661749973888624,0.6599825133244166,0.6628500910048155,0.6711682466925835,0.6728979711172035,0.6772855631497174,0.6800725818016737,0.6872803215682487,0.6893536019913706,0.696154876232526,0.6997826195290341,0.703716605872886,0.7076837482650177,0.7134018005396624,0.7189257685487047,0.7193512460031275,0.7219747711666046,0.7298438099567179,0.7362584095600988,0.7383216609296529,0.7447875833888515,0.7418545792684815,0.7470799338820778,0.7505373090646645,0.7575661722637215,0.7620843101700003,0.7671572706252721,0.7637107444003388,0.7726167550137246,0.7735855774664631,0.7783081236581348,0.7804297082016611,0.7798764129802271,0.7838834301944809,0.7829461781015064,0.7871693593174409,0.790506629321992,0.7935531881813325,0.7897558622541206,0.7876362812313444,0.7868137949082932,0.7854631593017913,0.783577709971444,0.7845801699551709,0.7803065628104766,0.7790967224637166,0.7803781805444955,0.7763834798331922,0.7782082418157306,0.7666987367729698,0.7646874801967112,0.7650147538153489,0.7586636258997632,0.7536388679693669,0.7457555816482966,0.7429343185874986,0.7370223958082236,0.7288374984052945,0.726598982593641,0.7265810156491787,0.7148812329743824,0.7069288178443331,0.7114201867602448,0.6957640137894315,0.6939416888270636,0.6843975641311946,0.6811733728811791,0.6736468150165711,0.6656959884253745,0.6539782964142622,0.6494496617583225,0.6433279146355205,0.6365637844461141,0.6303005985665964,0.6261734755957148,0.6179102018375243,0.6106279013496873,0.6094837464723752,0.6003085112841279,0.596877017971913,0.5883772050502197,0.5849877784684384,0.5753678926577417,0.5743091677937641,0.5711091694997498,16.98494303755797
test,sample_0015,0.5783445534895086,0.5871340965385252,0.5796411507280212,0.5967273704703693,0.5938582350082187,0.6012827760272053,0.6086595833046907,0.6136142894540109,0.6194885632138888,0.6296090506551941,0.6346653684973793,0.6372442452023646,0.646481999290799,0.6546701698700601,0.6613838229637713,0.6676429789464511,0.6692664772709864,0.6820188177593806,0.6871103227740523,0.6995168654151135,0.7079562761115339,0.7076637022328507,0.7166813898738125,0.7249435678806565,0.7300521410499172,0.741327683768962,0.7444376931733304,0.7501807102139336,0.7610917926850731,0.760792688967677,0.7706793208028123,0.7739185846791926,0.7782625891346812,0.779927902701218,0.7868463719881726,0.7932405551291993,0.8030462118962005,0.7970055889306017,0.8068102292946684,0.8088983557755398,0.8092164202764136,0.813583966895441,0.8166829825265087,0.8146041328047473,0.8164202894762267,0.8202464110940656,0.8177895450411693,0.8190339759480121,0.8214237139407705,0.8192315955240147,0.8166748633111829,0.8242937012599244,0.8238391624526922,0.8216940708196024,0.8152082305497788,0.8151284965683478,0.8160601958682938,0.8126536800291952,0.8112248667724424,0.8123332658312782,0.8059014802915124,0.8017538441696578,0.800135353909988,0.7996664716132709,0.797369789847475,0.7915755891214735,0.7916078704494135,0.786667020806323,0.7818869724282305,0.7787355790331836,0.7721215436459448,0.7652213305936801,0.7597299131091622,0.758339261877075,0.7561628971734313,0.7559060770580971,0.7524394078863152,0.7484709895872309,0.7455505851849156,0.7336949319922252,0.7353290447726842,0.7298801584307316,0.7227275734460391,0.7214087489322196,0.721937264383191,0.7122711363890968,0.7079704442444952,0.7049679516632543,0.6992675172216594,0.6937736611137848,0.690300076578199,0.6910815532731789,0.6815945726419455,0.676229607356774,0.6725215291197826,0.6729001699706373,0.6642823730067811,0.6574299430504633,0.6535063621188099,0.6497221139815763,0.6440773802924114,0.6442923831195868,0.6368360236239476,0.6375487380010457,0.6348423178363656,0.6304856032925162,0.6234830368421884,0.620504702753315,0.6182055853437021,0.6184368531805875,0.608266957090799,0.6112961872182214,0.6090757748119656,0.6045745730149236,0.6014586859019293,0.5990331948614076,0.5969195033870006,0.5928785508352452,0.5935742388758637,0.5891358089001065,0.5869352823624746,0.5815586139183473,0.586269409222882,0.5846982468371565,0.5799165924413245,0.5789395677009727,0.5777178312245217,0.5815585519935642,0.5780511482800819,0.5746241987727277,0.5791796963624274,0.5803936780443998,0.5720098331132362,0.5757527103006114,0.5753127532255042,0.575880337065322,0.5741048758883515,0.5765543470204559,0.5715027286867799,0.5699938515599876,0.5733360508448279,0.5733924409940669,0.5727970394535984,0.5759367104037976,0.5744235695254021,0.5767870148341415,0.5738743777816674,0.5744978011636154,0.5734024071185504,0.5736041529942244,0.5750244494990249,0.5790907081415178,0.5776338080076984,0.5750925916669628,0.5744854924987596,0.5741667147944687,0.5717099642578778,0.571858297901825,0.5779784874546555,0.5751917989866502,0.5745224541346151,0.5723314240431037,0.5652293617222038,0.5688868147790463,0.5733453931309735,0.5673459260245435,0.5727894909777724,0.5695641064793205,0.5702977135029129,0.5629953261087283,0.5642776452213405,0.5608408630724834,0.5630787556097517,0.5660828429227994,0.5578540509461344,0.563006229666293,0.5536195684333753,0.5510755726553932,0.5542739807065046,0.5513493942703445,0.5554337358172223,0.5506737808590907,0.5484577204350926,0.54711479144302,0.547006053451536,0.5443536385611586,0.5449831733802808,0.5433177625604098,0.5392897472669183,0.537899814335722,0.5372401953132865,0.5375750382582206,0.5353813559788992,0.5317757870871548,0.5330234689029829,0.5312798993765807,0.5311777423074696,0.5320293090183299,0.529911766148971,0.521753780151416,36.69029361527066
train,sample_0016,0.5075589646850726,0.5071895886003257,0.5124536056503675,0.5155522669663798,0.5166138070643798,0.5180929888694985,0.5169826002332896,0.5129119217005439,0.5168897617979757,0.5179297472437622,0.5159923851067116,0.5208367662394218,0.5187915206660159,0.5254135390539278,0.5265839261364281,0.5346973171280605,0.5300824392370713,0.5307239937836266,0.5257660879886485,0.5321125590461496,0.5304335272252899,0.5321425644888081,0.5333547171647376,0.5372347903120334,0.5397221257931193,0.5402633408810524,0.5405063764385489,0.5439791016633722,0.5468546595532608,0.5502599403246365,0.5517728893710281,0.5523787815616987,0.5508390197540541,0.5557203863596738,0.5604412322242146,0.5555918230886583,0.5560454246796941,0.562080052533006,0.566784903205318,0.5664021392672457,0.5744999475054757,0.5706355543190481,0.576597711003291,0.5716258379200743,0.5778605613126487,0.5815140060705395,0.5877125462400259,0.5866772979643223,0.5875750826080177,0.5866827621319687,0.5976667158434377,0.5974740466933203,0.5954308945576131,0.5978384407737433,0.6032750888440725,0.6062036800086064,0.6141600062522752,0.6096725460910524,0.6163976767748859,0.6137982635589524,0.6149565713331596,0.6187959119221844,0.621161993414088,0.6269588090784028,0.6282467268257601,0.6265050455925856,0.6352643406641855,0.6335504123993799,0.6384505330336979,0.6392247082828952,0.6428366188337634,0.6401703309549265,0.6459008920378934,0.6415796046343196,0.6480705012859849,0.6451407163250835,0.6442264752066245,0.651402141753702,0.6480305569010372,0.6517805998285298,0.6482541863206113,0.6531052460871082,0.6573768752320123,0.6517173437675856,0.6524745691351199,0.6590375937710559,0.6585343003351756,0.6562832881153597,0.6545577419091262,0.6588981693216922,0.6537589930045102,0.6581360833517929,0.6588256150279136,0.6582546327167274,0.6598149750730353,0.660395105498339,0.6621913307256178,0.6609858660761776,0.6585972641254277,0.6621893781890966,0.6618057175943677,0.6606351447315069,0.656552197847486,0.664603092703838,0.6633199721593244,0.6596339012251129,0.6609133328350281,0.6638606063008864,0.662386922645832,0.6678093724406498,0.6662319842682021,0.6648831194306748,0.6708253226452026,0.6739650981732925,0.6720538402180943,0.6728389586675503,0.675663656641036,0.6762432806633045,0.6788449066911941,0.6840848133608661,0.6827256420460884,0.6852781254737196,0.6883748577783062,0.6895750233009668,0.6930507731656197,0.7005967458757713,0.7035704775139098,0.7035916856871918,0.7135496135725357,0.7085659038659199,0.7187276200277882,0.7243667835991751,0.7179779137085138,0.7273814417234026,0.7295210032370185,0.7310335449568404,0.7397504645676256,0.7423784041002979,0.7448729121550344,0.7498441028817167,0.7475829467243256,0.7616309964901493,0.7608002077202931,0.7629315454039858,0.7672241730169804,0.7699121356753885,0.7715818177362488,0.7702619575893583,0.7696591043209777,0.7766318158615573,0.777072899902948,0.7811280122027358,0.7838917268664072,0.7810223669334798,0.7824051670931941,0.7879829645770242,0.7866865848003348,0.7819271560371693,0.7806259335606701,0.7835179776916794,0.7787572527136087,0.773314920526474,0.7712563315903177,0.7721638630227731,0.7652293593013623,0.7600232743599344,0.7583270824553816,0.753213422092562,0.7528776719261895,0.7454557184354453,0.7470413735650212,0.7369728053492325,0.7292611112990406,0.7250696223148423,0.7199193846461103,0.71188986976831,0.7061425436303099,0.7012693663818862,0.6951846747891453,0.6903679066959342,0.6821377307725736,0.674213145082515,0.6709688697542158,0.6615150977693156,0.6524766669046524,0.6465755025213709,0.6445913008196319,0.6347650955749817,0.6247145994474699,0.6217470698119205,0.6153600677922564,0.6107167193756515,0.6059662243456035,0.600679495814201,0.5948520701028283,0.5854025558845399,0.5811675401085916,0.5751455017222745,0.5698389007885413,0.5633996709241593,12.97137653377341
train,sample_0017,0.550148039022172,0.549474072745499,0.5612117644880048,0.5593239059481835,0.5673103073243971,0.5634322410623119,0.5695972553008166,0.5729953601786462,0.5766195425007797,0.5780005693637269,0.5882563260214774,0.590968177783864,0.5987920853195614,0.6014474657733033,0.6062269403132173,0.6058795564016038,0.6123441916487438,0.6184875834129969,0.6243714210085205,0.6296674966965834,0.6339153421615993,0.6356226452126272,0.6400117844741404,0.6509052826363608,0.6501665526373355,0.6540409665082123,0.6548542189942834,0.6612437788925447,0.6676439615082601,0.6640976364874833,0.6726840209557583,0.6742962526723202,0.6782756360099557,0.6826637509940912,0.6868891648218893,0.6889738770350766,0.6920769663350745,0.6997022849098138,0.6961542970144645,0.698911432347175,0.7035663000696739,0.7038808025838652,0.7069819734490366,0.7048504621768972,0.7070015815059658,0.7079661433229961,0.7119775907360143,0.7120680925471539,0.7097150164505392,0.7084634273199613,0.7080940761462493,0.7130211675135941,0.7056511619948297,0.713216836026034,0.7104562710154814,0.7167731545918885,0.7105167207490435,0.7089687219857561,0.7040145692720807,0.7079918072879388,0.7106543822547814,0.7065563984863044,0.7027468623294864,0.7047576641475997,0.7033356906588403,0.7039358659368697,0.7055632493619843,0.7043685130239197,0.7032243140497272,0.7004005557755338,0.7007734053764016,0.7000417612143798,0.7007690086521381,0.6975726986410269,0.7014161462762847,0.70049227496757,0.7009303477345721,0.699630179098391,0.7009494162339694,0.7025017736459382,0.7058969326646184,0.7043665332351481,0.7006728125056872,0.7008049727507848,0.7019636222640337,0.7043343845780703,0.7071736322085379,0.7068114618623864,0.711441538645574,0.707899468692493,0.7102740266181464,0.7175201250048282,0.7133231239219566,0.7130416357555266,0.716727786196981,0.7171103752461618,0.7201779278050527,0.7168942224079519,0.7195425329433465,0.7271569330790056,0.7258090474855011,0.7294042812061091,0.7259348850205127,0.7305948755595707,0.7318538466645315,0.7287473331412329,0.7359591321887107,0.7367845768746565,0.7340523116441092,0.7355060489255958,0.7366794486433204,0.7360170042273854,0.7369495974839133,0.7349285173155902,0.7351290427217669,0.7369651806718491,0.7364032495668437,0.7392854283719452,0.7334286317323468,0.737552132573944,0.7327390732612773,0.7371132739661863,0.7285317618288041,0.721524799470995,0.7260156583227015,0.7216838376716485,0.7156099708115005,0.7129346134278365,0.719198370295069,0.7154487049985507,0.7100219043137711,0.7086650233111385,0.6992809720604778,0.697494416904136,0.6962315242192159,0.6928248541922173,0.6885468837144747,0.6811052698339153,0.679005951070967,0.6739924493879862,0.6688496687974268,0.6657625970276067,0.6574406322149338,0.6564893734724379,0.653712525895061,0.6481013796014291,0.6423683079885342,0.6461841638187646,0.634247048768229,0.6321395573482808,0.6262607793011614,0.6193381244935768,0.6171880467679711,0.6176267938439324,0.6125115984309284,0.6075306478568145,0.6002261091442775,0.5959921025379687,0.591813885369066,0.5932931329195648,0.5884470077965898,0.5853127744276025,0.582841376013336,0.5791188710155649,0.5758249929500838,0.567481834417708,0.5651128413807543,0.5674927521898363,0.5608164468107238,0.5633883739976101,0.5583096440238994,0.553833206014308,0.5532355642622676,0.549656320096448,0.547155906399046,0.5434932321962395,0.5456753284461306,0.5443945891822871,0.5349910172661517,0.5385313548418573,0.5299542217984181,0.5339750031042897,0.5365935938383256,0.5246797345549895,0.5316418783727024,0.5267275475888645,0.526526603960668,0.5278769279558079,0.5213169260352855,0.524671319073061,0.5173378124134894,0.5218407586536135,0.5206331396351849,0.516884203886481,0.5163643260166259,0.5180108642277691,0.5162346330472093,0.5099619416158162,0.5182179007573761,0.5129438336167083,22.76241690806857
train,sample_0018,0.5060111310730988,0.5071477444534045,0.5125431597014726,0.5035378207567365,0.5112018200700621,0.5108943038592835,0.5078069371385686,0.5132238465317213,0.5186273909304886,0.5119882693318502,0.5153149932318779,0.5140551095756953,0.5167493636649441,0.5216018169444673,0.5181546514732794,0.5141186893903488,0.5154393642390593,0.5187477282790812,0.5218369991806138,0.5172015335905239,0.5208316500292196,0.5208236076364111,0.5202533384922913,0.5231807594878648,0.5213998714847103,0.522685665340003,0.5257260605842636,0.5221211661636872,0.5207937223981892,0.5209634387728933,0.5254074099050663,0.5230382290070873,0.5276160105184818,0.5299330345070363,0.5280146670872246,0.5250803834589245,0.5286409829345825,0.5293833442108958,0.5295731425017733,0.5300195119959081,0.5278604516004206,0.5312603176272771,0.5291790839084805,0.5288365245865576,0.5342959448674585,0.532589721904772,0.5347779477748317,0.5348411117903739,0.5342625963906263,0.5358973796418666,0.5354684924363906,0.5337174202467919,0.5374610450697273,0.5374178346905427,0.5426291314345544,0.538201967878874,0.5441882854563921,0.5403611722516429,0.5451125448788678,0.5425501002442372,0.5463252153180169,0.5492241104784646,0.5516480408071539,0.5469825819766327,0.5538421284929811,0.558164511919892,0.5575604037531049,0.5594085072146127,0.5655138703870919,0.5686321176165214,0.5698159228916307,0.5746273778126503,0.5776842901664343,0.581101814831105,0.5912417031197175,0.5955315184803655,0.5977649165377639,0.6051830158634016,0.6117613897211649,0.6144066050878445,0.6239506323652472,0.6344052978308026,0.6379971729070306,0.6445919646882583,0.6511311049073123,0.6602231011739996,0.6703537709827524,0.6710164368466823,0.6828771065105443,0.6978115568250443,0.7018971729934685,0.7119428668127795,0.7153804969180397,0.7297420938583226,0.7389940443360532,0.7457169815292113,0.752705706769122,0.7639131116247706,0.7690531048595506,0.7805858794933289,0.7902282398948507,0.8030618194031969,0.8103968801627995,0.8172431778688926,0.8267965130348761,0.838020661094637,0.8411944320776998,0.850715084960356,0.8555800318649794,0.8630419100735509,0.8681328947439131,0.8749619961778514,0.8810059088173469,0.8861663534484248,0.8927047239307915,0.8932048178595184,0.9018052419029796,0.9031121164260559,0.895382303821586,0.9056255661727859,0.9034722893102622,0.9062126689584913,0.9050926437158506,0.9112935877091701,0.9044046053513624,0.9054552473693678,0.9025167722900844,0.8992543093860923,0.9003038805243344,0.8959510450050028,0.8923406290912335,0.8829412297740519,0.8858555957420113,0.8823704907359615,0.8776556979900199,0.867139383487793,0.8648857399873332,0.8542743215104223,0.8483910794502799,0.8422269740607251,0.8321643437050323,0.8248265116034873,0.8214941506533311,0.8099838294746589,0.8046977174054541,0.790979117309726,0.7901798808442816,0.7842878028284406,0.7738753426845338,0.7679785931660352,0.7599055899408169,0.7516103883878855,0.7434945281937935,0.7368205310546161,0.7276036727096362,0.7210740095141914,0.7107411854106033,0.7030132345083424,0.699785494680526,0.6951615398559163,0.686916410416295,0.6795881318369186,0.6708521384649814,0.6634761655319957,0.6594640277241663,0.6528399292954121,0.6448270297184339,0.6436635207158284,0.6323028631859768,0.6320018608275484,0.6275553225580489,0.6232003844563051,0.6176106230662755,0.6096897877078803,0.6068135990446474,0.6002361170214681,0.600140671537187,0.5936875963763569,0.5871089150895065,0.5818173818586064,0.5762890328892424,0.5744593360227783,0.5698490560896258,0.5671745556413641,0.5695156597508235,0.559294634887931,0.5578896469755423,0.5519039776229419,0.550939213398067,0.5470233885831496,0.5460492129873543,0.545392143247866,0.5367968249435813,0.537807961815527,0.5381814886865428,0.533093916423472,0.5317018319119617,0.529589567082474,0.5242415285152419,0.5267132110838002,5.0
train,sample_0019,0.525289405126433,0.5277629414818689,0.5289194390770345,0.5378597202013486,0.5394102077091868,0.5429901308419696,0.5426913819150044,0.5458028599247063,0.5462237850575067,0.5500646275604996,0.5533450619586212,0.5542331681443221,0.5583016693030113,0.5578062112525546,0.5599023951681587,0.5674547635912096,0.5674334639666325,0.5772742216231304,0.5776890987279671,0.5805406149095146,0.5826945681459365,0.5795262917956124,0.5863452718722417,0.5880452848480975,0.5902658045622708,0.5992385016604005,0.5978847281144093,0.5970012722076785,0.6041131840057153,0.6063908522529009,0.6089644028274868,0.6084169536902134,0.6157427296091228,0.6126382114163184,0.6184796910094983,0.6230551526316999,0.6232100738448315,0.6250846541309701,0.6230568718552072,0.6287311764137513,0.6277591052578022,0.6334659328507063,0.6306021750977311,0.631778231063317,0.6275240950347267,0.6339807486673852,0.6415057220227882,0.6388344676756151,0.638368882311252,0.6418273941083601,0.6395978124147725,0.6368252954830964,0.6381328871528386,0.6422653275066268,0.6508492842034609,0.6435709257985913,0.6422609919061162,0.6466933952668974,0.64694150953685,0.645110495685536,0.6467002791665544,0.6425563961639222,0.6433097628086374,0.6452112827792195,0.6415742994527935,0.6399270662399832,0.640620150314154,0.6436123868999604,0.639123186292692,0.6387597464447734,0.6344988098259914,0.6374453257037416,0.633462391338034,0.6355512344879768,0.6337565143332202,0.6280877672837963,0.6292692912677675,0.629010562858168,0.6244463872262199,0.6220427540963409,0.6206318467681345,0.6248396444080966,0.6213275079884446,0.6180692813237698,0.6144983890064812,0.6098254573121369,0.6148191065714811,0.6100602066578384,0.6030564667966103,0.6033050055774215,0.6063073657109123,0.6089055832024062,0.607451718232235,0.5973394947504191,0.5998383304815036,0.5939344999135606,0.5941721038271879,0.5991001779192935,0.589331243259527,0.5883179227699221,0.586202302405836,0.5919287846375525,0.5904833424353853,0.5953948350291612,0.5928370224307479,0.5931299277995679,0.5862686829708161,0.587919796844919,0.5851510639881088,0.589729926618087,0.5858677725490442,0.5934082337593635,0.5922124016220273,0.59335720441232,0.5946268660320442,0.5990621551729252,0.600012875130729,0.5995336262399854,0.6051004503576514,0.602388636858558,0.6126689510800333,0.6146633613308167,0.6243985883456931,0.6258218000977934,0.6279352413219307,0.6329548160718323,0.6404579500152063,0.6465502004744897,0.6487766370305009,0.6570716468988107,0.6623871512239592,0.6723575044083282,0.6727908147966106,0.674903682944383,0.684024980262301,0.6909307149345905,0.6961463281298055,0.7088029614583149,0.711339201611004,0.717020744146691,0.7214343905016695,0.7316265676822438,0.7399413912345073,0.7392371675919213,0.7446368566394928,0.7572536572615092,0.7579622860756681,0.7630680426047689,0.7664478934705241,0.7745057490403562,0.779316286393387,0.7825210008156097,0.7834112640069835,0.7834141009288155,0.7859507062311815,0.7869037141170827,0.798683409534872,0.7940105893373652,0.7968852847653238,0.7954750373128383,0.794625820157808,0.7990246967271002,0.7942114571351289,0.7870050108357735,0.7915938660144752,0.7850249117371159,0.7837132449266777,0.7811366939286073,0.7745598607212062,0.7649458182398805,0.7614766410861686,0.7571494149770599,0.7571104184390967,0.7480030260681384,0.7402360555768812,0.7404865868253673,0.7311788752739022,0.7211217919704211,0.7193810539994693,0.7124494639892229,0.7003181036021489,0.6995032099850466,0.6895820300417532,0.6839634493014333,0.6743134247608285,0.6661478004589743,0.6597293731656866,0.6526746498978419,0.6464473641071481,0.6366120624259151,0.6328241059383498,0.6272100971945117,0.618592960593192,0.6156897368414398,0.6024087798529114,0.6042491148071664,0.5916451530345292,0.5881589463339867,0.5845751408901568,0.5783711367935502,17.38237671647017
train,sample_0020,0.5320687567240514,0.5397122769829662,0.5383345540748488,0.5448562988596218,0.5394714624957276,0.546891514961754,0.5482317332398482,0.552811809154312,0.5546814534951561,0.5615882863987581,0.5644348667279514,0.5611312071586961,0.566905591366064,0.5693358394664723,0.5693915315627469,0.5705876626467807,0.5734447303848571,0.5775898302557787,0.5840652145973138,0.5860239475080934,0.5922447708402372,0.5923242346798131,0.5947898665342096,0.6005331805167959,0.5988965410109961,0.6044503377172139,0.6054913198407754,0.6116061246658053,0.6132873005453876,0.613622450631992,0.6178325761864043,0.6230093351043412,0.6232624684758347,0.6196879590996502,0.6240191567678568,0.6244363581156195,0.6309831099156082,0.6271391407944533,0.6287848002105157,0.6321586242880493,0.629437044447505,0.6332494064228453,0.6357211210699176,0.6347799334307516,0.6334245881367825,0.6326614179751632,0.6336264648114214,0.6357627081324841,0.6352475196767394,0.6373829540690783,0.6327325790449267,0.6345165568023498,0.6355951818441201,0.6350111843010522,0.6337497414947159,0.6330184783754442,0.6348692254467782,0.6316724874423376,0.6332925531457824,0.6293508397919862,0.6306380654517473,0.6299717368702763,0.6291029016781882,0.6306747455422761,0.6303862051504863,0.6279119750543511,0.6286473601452192,0.6277870337677925,0.6327018293423466,0.6301912665456544,0.6284466960212378,0.6308180175337885,0.6344444300482193,0.63483089619404,0.6382447958420452,0.6347081137179243,0.6415192728653876,0.6392777137678451,0.640053739536655,0.6413277925085006,0.6498126906727062,0.647057703548142,0.656142602115696,0.6558175262943837,0.6572426258100603,0.663123601344443,0.6650292242269625,0.6688218573034217,0.6749285044077514,0.6801728922612787,0.6856518004034112,0.6863521314883417,0.6975577887974839,0.6963332322169782,0.7043306039101591,0.7089133632863918,0.7185368178229328,0.7131813500334772,0.7232466246949861,0.7276783596110417,0.7312559551127482,0.7337321129985528,0.7427464032777578,0.7493632793038227,0.7508313065365828,0.7536311051273812,0.7624982969982248,0.7656086276933163,0.7639679592401862,0.7728712610507394,0.772388812268559,0.7746145918898846,0.78370804196033,0.7858776808702574,0.7850285537398133,0.7868506764237377,0.7876990389213657,0.7864050419092097,0.790239352248062,0.7931914810861853,0.7961583165345991,0.7943616947039192,0.7975723057201001,0.7954542536499737,0.7941230310359368,0.7939531255808789,0.7955258969742521,0.7930892182717098,0.7878790439367009,0.78546620570772,0.7797833155358056,0.7825096872091519,0.7788049009040363,0.7764143372982288,0.7697025381268667,0.7687379863241535,0.7613593228444266,0.7587857137326933,0.7571177255092091,0.7454148689185187,0.7466607200523141,0.7387755558679687,0.737368023355736,0.7298958204731236,0.7276386202217293,0.7224679238945737,0.7214159802637314,0.7143286817999613,0.7080499137663814,0.7021623733312365,0.6998246976018756,0.696426605108661,0.6882349739117368,0.6826938569816656,0.6771241285718745,0.674058763452351,0.6662987013962036,0.6610625318700396,0.6595899427157104,0.6557450965529114,0.648723210091275,0.648792358910351,0.6386744704063159,0.6318426981355567,0.6313765877461437,0.6264752661806907,0.6234219204344522,0.6172761055779785,0.6112173670108256,0.6121586302940002,0.6070810550060037,0.602480692916649,0.5946731735009612,0.5916098507514664,0.5871676417592189,0.5909521969298527,0.5812983542312359,0.5804586115150114,0.5764090579686032,0.5750344619219148,0.5683672900884501,0.5645917786486587,0.5624516864000882,0.5580297528155164,0.5599000251900473,0.5584463052908946,0.5534657832326169,0.54596002090449,0.5492356916018141,0.5414638847897286,0.5441776785375124,0.540283701787077,0.539900286370447,0.5303035454947558,0.5365084615394272,0.5314730225434887,0.527167967565642,0.527346159792864,0.5247816659613396,0.5260708308441264,14.894253737726515
test,sample_0021,0.5653742609152272,0.5721924932024186,0.5734500156490306,0.5795077799691968,0.5836169736948122,0.5874251182898603,0.5950111892830375,0.5987166373375995,0.606266460835603,0.6049229927193568,0.6153045825629698,0.6176224046909612,0.622315255509787,0.6343411887188537,0.636398720628002,0.6434496762062206,0.6471327979111734,0.6572226812911519,0.6623192736393726,0.6672394766745384,0.6759409064388311,0.6766220556728794,0.6847018929781564,0.6852953969545065,0.6925357925444773,0.6994634372249692,0.7010079853162312,0.7121395092397106,0.7151340088688714,0.7146278239379904,0.7179777959325091,0.7232509598009126,0.7290775959561558,0.7305887379651166,0.736544679712932,0.7346048969407035,0.7461820494681347,0.737776192919369,0.7369607877001837,0.7435191582370264,0.7427260443717548,0.7463202163988087,0.7459203630070779,0.7421841964513772,0.7434458905352397,0.742317889161473,0.7446622621710131,0.7401340244862146,0.7382388802062023,0.7335641247230699,0.7330075138706033,0.7281067521909126,0.7289677870068563,0.72322219766177,0.7157269309014546,0.719512861234431,0.7101449820324309,0.7114406335583285,0.7047480636612112,0.7007273262948883,0.7006946076040664,0.697388440593414,0.6901548626938316,0.6817489396065913,0.6805264770683169,0.6790023971092476,0.6702830595823948,0.6699814302228697,0.6682100459884137,0.6632074817658694,0.6561986823328212,0.6574503056506948,0.6463573691542469,0.6493109510119427,0.6425240884020689,0.6430075537914135,0.6395417145770493,0.636819463875349,0.6340893701252772,0.6311416876825744,0.6342574159526104,0.6338622580781258,0.630849886667077,0.6329243376031171,0.6250588929641236,0.6236251334895353,0.6243621624867961,0.6256799157066436,0.6245670268564281,0.6249106005787189,0.6249147392618948,0.6268517452894993,0.6213386752119597,0.6283761254226845,0.6214685984740822,0.6276998748234779,0.6307127226997105,0.6282288608862814,0.6320751731249294,0.633567430831423,0.6318445879330303,0.6359534339170445,0.6425837881657948,0.6405718878771921,0.6391230977828655,0.6444426000370771,0.6447633026848688,0.6458073153603704,0.6496560811326064,0.6510699563550785,0.6507930033604953,0.6534146082613568,0.6566511584073189,0.6544658729212386,0.65931024513693,0.6616232465615074,0.6614204085710674,0.6622634759113167,0.6681188433420291,0.6674747375786478,0.6690445114415393,0.6657094856091055,0.6721912600011902,0.6707962588174479,0.6670185293611355,0.6672194136858048,0.6724254701097695,0.6719107181388821,0.6698749621302289,0.6765716588307406,0.6762710304582201,0.6765212654585099,0.6722499220158902,0.6731790607278672,0.6726679425113499,0.6722643073769159,0.6698223088504921,0.6752050220884754,0.6700423671307345,0.6652692817191096,0.6711590943720553,0.6705556440345253,0.670503708521051,0.6722117404421384,0.6635847081971749,0.6688471737799745,0.6665525223494702,0.66407627826984,0.6593626317512844,0.665616118460312,0.6623652870681961,0.6624228388036054,0.6552241067535259,0.6520965788424951,0.653816591090379,0.6515775379427804,0.6487381703106512,0.6472186078681054,0.6420694543001904,0.643217056284908,0.6427268807556303,0.6375828667969169,0.63497921860149,0.6302344602213326,0.6279498635734532,0.6311246726929454,0.6286368656778337,0.6227485671775401,0.619936450160588,0.617643875344551,0.6123925276545031,0.6088736655544229,0.610829182565154,0.6041332969958021,0.5983669431545178,0.599289923982247,0.5969741669433389,0.5983266531466153,0.5904177367416725,0.5852326007351087,0.5839859990572154,0.5762074230630361,0.5744794541096868,0.5698965424877332,0.5700105254699209,0.566991045084738,0.5653783845277567,0.5600228340897904,0.5577323474291167,0.5546407650392264,0.5513315550310918,0.5501534384372847,0.5463023913774594,0.5433768081592093,0.5385195628311155,0.5404319263565893,0.5324103513946199,0.5356971751231007,0.5353095999127212,0.5269016673193141,26.990841034504435
test,sample_0022,0.5622774752274131,0.5720093349552609,0.5749479447813562,0.5758248282969965,0.587629147832347,0.5860900649186773,0.5933473573815821,0.5980736745008723,0.6043274782797676,0.6079305780731454,0.6159484021279046,0.6235828913780384,0.6293638380888824,0.6362757449687955,0.6396333992233765,0.6479723372777082,0.6539311973926487,0.6605866283925046,0.6670862536165314,0.6729462470701163,0.6748711459938039,0.684152712134023,0.6889143823124789,0.6948586329821188,0.7083154111595888,0.7091772968443655,0.7166344786147382,0.7221073634256496,0.7284893990384979,0.7346089121695489,0.7404192307419512,0.7445257000913018,0.7487873049501219,0.7490544642274971,0.7617592400150026,0.7644774148950819,0.7684934190459423,0.777859392576431,0.7765342534394053,0.7822755294807646,0.7845171450032709,0.7853131426516529,0.7934633394671937,0.7909868112263408,0.7941419315227336,0.7990202393936964,0.8020939635737465,0.8016415215526078,0.8003607312704808,0.8001686853991443,0.8103783610207524,0.8013306934915136,0.8094595778408447,0.8052090603475655,0.8043737492082289,0.8063829481580418,0.8093418052127467,0.8040620071851035,0.8077694815275863,0.8049461979697816,0.8023347890293361,0.8026776551912362,0.8027929963910645,0.8011440079294374,0.7985943328621354,0.7957974482945644,0.79219626719834,0.7886249825810574,0.7939598288618089,0.7874063423978699,0.7885368654687532,0.7817945792878702,0.7819200231926324,0.7751465389587462,0.7720416842111335,0.7725479357191658,0.7700508765784019,0.7610137782533832,0.7562719022918094,0.7573355827115245,0.7522924359511362,0.7494723959434005,0.7452918387599395,0.741628039839699,0.7374180803367616,0.7333624885638871,0.7260402294246645,0.7182465772702435,0.7209031836591759,0.7130433451621425,0.7128578533024069,0.7075552445633561,0.7044650003368139,0.7006634835039127,0.6924505891312651,0.680149635647674,0.6830950708904481,0.6804677123799505,0.6724353152796241,0.6648498095571183,0.6653978128418447,0.6594402442976827,0.6537967045535775,0.6506428169636445,0.6449932875177261,0.6370087968379474,0.6365933096310615,0.6332742646815814,0.627010695192757,0.6276510526119381,0.6225262618907832,0.6161228168342344,0.6125774004832895,0.6055616222839856,0.6031475696487134,0.6020203314600896,0.5963489514182841,0.5967786757414513,0.5980659898815227,0.5922111502329815,0.5840182560213392,0.5840440821238103,0.5810603181622135,0.5799671343876552,0.5809794288708388,0.5812590747727192,0.5765057967717425,0.5755495189289186,0.5736868776941247,0.5734894825605463,0.5683406230559962,0.5715366666902724,0.5703379162169012,0.566270711734222,0.5711718722335878,0.565668241694029,0.5666061548460752,0.5655287215742303,0.5686050695299298,0.571824150732135,0.5685097469593521,0.5651310481635311,0.5695042632107805,0.5743769108365935,0.5692456460946486,0.5729232719732401,0.5709131046614103,0.5689429114719643,0.569962846916375,0.5713989038076148,0.5698135205703571,0.5689807217038857,0.5680249798098654,0.5661045525493613,0.5672926200444,0.5698691848422468,0.5689936111260108,0.567494194142131,0.5677054499718166,0.5695420393689257,0.5631804906010097,0.5615360756496887,0.5674396606365633,0.5653068580180695,0.5632023392255954,0.5615951280134561,0.5576780947421035,0.5632789901800339,0.5593696724511551,0.5539870147429659,0.5564544256723464,0.5568442955177757,0.5546186472712149,0.5559461417806761,0.5492302683054829,0.5483474857794971,0.5471644665066988,0.5530052929232431,0.5460714544505383,0.5466677682107491,0.5430635630989114,0.5375906476128343,0.5452116860012799,0.5388492450205238,0.536156005067842,0.5334288186612082,0.5333623495800639,0.5296668505088069,0.5304956092940679,0.5259851147708869,0.5256463920067165,0.5276699953258522,0.5251787627298219,0.5238443222209471,0.5228756855105166,0.5243944170392456,0.5180639997945433,0.5200949213071868,0.5152004217224575,0.5090823227045224,35.131556193070416
train,sample_0023,0.5018964497593393,0.5031385639940122,0.5031740055659402,0.5066729641328795,0.505358080419126,0.5071776210301949,0.5052515504482535,0.5097842119119411,0.5069778228044204,0.507642150809424,0.5083656975798457,0.5071151744377499,0.5079788270857462,0.506011958603565,0.5079300612333476,0.5113710808844099,0.5142890720006145,0.5104529384119709,0.5089581862344639,0.5104172687256728,0.5101066488675049,0.5167113000383955,0.5125942763237137,0.5173685358671456,0.515222808237766,0.5145967212725726,0.5186508126709142,0.5221254961389087,0.5170921356599991,0.5210987658971474,0.5245183484133515,0.5269073214762254,0.5260406855538984,0.5313471952717461,0.5296160546579533,0.5361937406556391,0.532859990927183,0.5365420241885002,0.5389183341027433,0.5376867143966889,0.5393430951332794,0.5437694925883909,0.547273442681707,0.5552584126774653,0.5542637135937419,0.554984716611058,0.5593415094781052,0.5605710852911158,0.5688984769691836,0.5662664444584837,0.5702836940407108,0.5731421775273462,0.5769023344458711,0.5844949071149614,0.5861201483978243,0.5928826414428965,0.5924300889105635,0.6016395194547544,0.6036321802015393,0.6029199424836814,0.6106247810368719,0.6168333762396753,0.6189383085786514,0.6214608460182046,0.6333517642350966,0.6312953220643809,0.6344219375444352,0.6408493589565692,0.6428736120222119,0.6465201056148642,0.6529294018442318,0.6578801781397909,0.6628378502075549,0.6690930222279817,0.6700817910157812,0.6707672336224798,0.6809039027009383,0.6826238421217742,0.6920867682620887,0.6939002346524705,0.6930394806471217,0.7045328074851173,0.7076813382193496,0.709871510941955,0.7212454562367414,0.7216832547336742,0.7256149095472171,0.7251809023622545,0.7345271585805746,0.7377785169793485,0.7410908462297436,0.7472591206636037,0.7417815633999225,0.7494225336866678,0.7567259462020586,0.7613961987614177,0.7660129775835427,0.7676236412642233,0.7743801405340138,0.7758550341433066,0.7778965541965548,0.7766863558289028,0.7902010194165283,0.7868538172490067,0.7931426877594153,0.7891260977020261,0.7968348239227918,0.7995185791855199,0.8041001655239428,0.804285167658963,0.8049029515198922,0.8079749836606585,0.8115758410835265,0.8136752676367918,0.809576463581523,0.8087262793435257,0.8113781404168148,0.816187723126661,0.8150622461715232,0.8101844601261043,0.8182510335276502,0.8122831586237336,0.813734846923482,0.8165679401639186,0.8094550019733238,0.8065903877830285,0.805535336426353,0.8052982614452261,0.8050831795138347,0.8039220385625545,0.8009529604302403,0.7971262712818143,0.7957237237843499,0.7943924810301524,0.7921063505355157,0.7824512227159319,0.7810455030488236,0.7811116633876489,0.7728119505997659,0.7661354864517829,0.7686952632848656,0.7637650041605817,0.7599248696269054,0.7566001236623151,0.7511899845793315,0.7494941076001665,0.741111441412972,0.739353889408066,0.7392085003167443,0.7294164548340365,0.7236743965653499,0.7146987236877045,0.7135682363929877,0.7092305207383244,0.708396189372433,0.700289381778239,0.6991623209418263,0.6950731691715941,0.6890139721325276,0.6845564668328797,0.6793415360232249,0.6747339109327057,0.6693896394809158,0.6644887973425753,0.6596394697430725,0.6524336860573052,0.6514576221289085,0.6437140856011692,0.6436901422564156,0.6379570507433846,0.6329283643565659,0.630599462215714,0.6235522491464865,0.6160180876627119,0.6192508796991935,0.610993896611383,0.6084723096026905,0.6033100542882397,0.6000520471073801,0.5967996699565249,0.5895575599833407,0.5853741610269021,0.579830474766589,0.573274587806826,0.5703567412271006,0.5698286249854032,0.5657116422815296,0.5654248929901998,0.562556851228609,0.559175675767067,0.5558182521749749,0.5536902160336983,0.5522961027584445,0.5473647669319831,0.5468262958480379,0.5430754713130507,0.5388390932941409,0.5346964791229027,0.5310970444909404,0.5306076848027793,7.291022133192953
train,sample_0024,0.5376437820088885,0.5414513610519996,0.5502976844007657,0.5485234208551341,0.5518341736175199,0.5619781339034748,0.5553429361826537,0.56556904572956,0.5659958455500724,0.5658025307331858,0.5727339496331302,0.5760526713318689,0.5803328133946128,0.5905049467951348,0.5872838391531873,0.58829380948291,0.5946003475460431,0.5963617069041852,0.5999931617331157,0.6047942184740642,0.607721616656028,0.6108535643860192,0.6174933266296608,0.6197559722977407,0.6217187869289418,0.6241040457712841,0.6321184042961625,0.6327535184076859,0.6348930410641169,0.6420888159575238,0.6390200750828003,0.6431071182491043,0.6488704738976849,0.6485556164816395,0.6474064774564,0.6557211400715988,0.6563505407239368,0.657602315456483,0.6567331975873285,0.6605036407803386,0.6599098642662402,0.6590074000882994,0.65914580677587,0.6601944112092083,0.6623851975357185,0.6597425016859035,0.6578116992419746,0.6562273025002424,0.6596389139883854,0.6594913295719669,0.6562960410777893,0.6569223964838724,0.653454500907646,0.6533884337138062,0.6553944109876116,0.6505261182922154,0.6506819554873454,0.6489847577800413,0.645859891954276,0.6497562837561273,0.6428760859894672,0.6442900165848211,0.6463784026653785,0.6447691512698658,0.6425286436558438,0.6464611209848747,0.6355565211253816,0.6415379427655239,0.6411630426573648,0.6418326828467711,0.636858538967946,0.64501215341969,0.642614293117729,0.6419882598297431,0.6459264985624471,0.6446908403469408,0.6470334863735002,0.6501218796915674,0.6493013280400406,0.6554720216964968,0.663230082703441,0.6618741202776478,0.6690101019582093,0.6675241871169367,0.6726289692469564,0.6777216292851851,0.682895385675053,0.6841950061837396,0.691052389115894,0.6972962811188052,0.7006134322934398,0.704696156027392,0.716068786616625,0.7196241318639879,0.7237994226568052,0.7319054808174854,0.733227569051486,0.7470977331868522,0.7466509050499146,0.757722837257149,0.7648561071975074,0.769082909414732,0.7718583296244422,0.7839062102768255,0.788157098323589,0.788525430083534,0.7964951556779107,0.8049396307703958,0.8028763789317421,0.8057142660777872,0.8137814410020787,0.8184444533043107,0.8231014357888855,0.8189816866112893,0.8274161854013717,0.8297738187002364,0.8324438231264427,0.8281466570706966,0.8321932928234697,0.8251935372435677,0.8295441165269573,0.8256643700015254,0.8267948932555425,0.826111278495202,0.8266814084561973,0.8239527226883464,0.8178338341172506,0.8145224990855373,0.8073896306699577,0.8063370689832929,0.8021556231174053,0.7944475158478475,0.7875958123638664,0.7884099094389552,0.7798083388503622,0.7728722301635322,0.766617369798783,0.759924566368239,0.7551566508777517,0.740980073413156,0.7341511288724776,0.7280121258053948,0.7254876798488266,0.7149580822230273,0.7106584628908006,0.7044427850381598,0.6905125597567366,0.6836427278900434,0.6792790095357466,0.6722361304302207,0.6641223178933855,0.6607120086304044,0.6528080932452749,0.6443371556624137,0.6360564689752736,0.6294665386153264,0.6230104538300562,0.6177286676234623,0.6154353348230359,0.6070811062693764,0.6005286083919547,0.5951302931799849,0.5913721031836503,0.5892335085535533,0.5825664065530903,0.5797926017689514,0.5751703760618847,0.5678225176462788,0.5614086054783821,0.5585960709868182,0.553780145520043,0.5536307919068767,0.5507807745530968,0.548666115813027,0.5447046556452035,0.5391584593845972,0.5404569776720307,0.5376753797904842,0.531333183019241,0.5307273037848023,0.5333683716737231,0.5293293855896266,0.5278517861580094,0.5256614419323039,0.5242901942273358,0.5205897857388186,0.518113527334597,0.5226085429275941,0.5189133926999354,0.5182021402449858,0.5183779248308854,0.5132537820948949,0.5185534599123123,0.510674667541831,0.514839776752555,0.5194374289410056,0.5108254657585657,0.5139540815879294,0.5152735079300806,0.5130291981878874,18.020753669988242
train,sample_0025,0.5441413159968708,0.5542134820785085,0.555542116814854,0.5639839180504471,0.5651603851521623,0.567956419069962,0.5723714943400127,0.5733991362042277,0.583910132019954,0.5830601073467239,0.585107492386137,0.5899154410618597,0.5961969274913979,0.6008008864251082,0.6066368548732493,0.6073434968616886,0.6145727940634789,0.6195248936114183,0.6258595181587499,0.6326148886576989,0.6315786471387725,0.6376693835295946,0.6444887482109587,0.6573169115200085,0.6573549821293808,0.6603104108428034,0.6682669029089187,0.6729215146008235,0.6778603541821677,0.6855776143690431,0.6869592967201019,0.6934327277524063,0.6976420165034469,0.7020281949158766,0.7120913098309957,0.7099661288865836,0.7183908445926025,0.7142894124007082,0.7238476483574972,0.7282028982097223,0.736480364888387,0.7377655024858216,0.7408947011489225,0.7454033266522191,0.7460718047936982,0.7553109692228164,0.7589599295776394,0.757141095656382,0.7650246119296553,0.767598900441355,0.7705297125432928,0.7708073538816401,0.7769732353990602,0.7785443134722774,0.7822719609037292,0.7829273768325873,0.7848278244378726,0.7894388455843726,0.7920152579714225,0.7908361940720425,0.7957673258521538,0.7934308815887142,0.7950173878447815,0.803921458070841,0.8025840112110829,0.7985782565810854,0.7996178664285868,0.7996959842380573,0.8030709345216306,0.8054740530706552,0.8041214386188386,0.80379816999797,0.8054095666590417,0.8072074153792724,0.8070992776102212,0.8050659039564642,0.8006926774747385,0.7989597429660453,0.7976659581008985,0.7976860915044238,0.7968885644689918,0.7985828894423876,0.7932191822746757,0.7935794838538277,0.7923934367221914,0.7917549102608392,0.7895698035965879,0.7818920304925645,0.7823935016376754,0.7803218305485204,0.7764571877133571,0.7732083901237918,0.7647130711440687,0.7659759014194606,0.7612787930345685,0.7590536118187007,0.753250544384047,0.748344026870173,0.7421290846842672,0.743795571185371,0.7343331684432053,0.7281598274066141,0.7328565120780287,0.7248904942073406,0.7218648533783139,0.716055505879535,0.7118199762010142,0.7033462596063015,0.7057358672206556,0.6976262067011172,0.6980126157179246,0.6906182080019749,0.6881993929058337,0.6802388728312582,0.6765045492933235,0.6763081843542231,0.6707264220355987,0.6677555817721317,0.664104737729187,0.661592904388906,0.6536890818993585,0.6507892931238082,0.6456891923774669,0.6490053657561738,0.6406804506227552,0.6422741593247984,0.6357343336973782,0.6360471019731809,0.6296819350961979,0.6294516923585632,0.6220348847494268,0.6169487792676485,0.6109056200774331,0.6139582865182804,0.6088220506016755,0.6116436697896854,0.6019172140374344,0.6016599074251249,0.6017149193639736,0.5968203148141226,0.5896456995520829,0.5912544460396986,0.5873234304866636,0.5863275872368754,0.5785365660312227,0.5811909958511382,0.5772451137237644,0.5751947809895572,0.573206011630953,0.5745893745508047,0.5667198994547605,0.5660509169483532,0.5714952476760738,0.5641504064306737,0.561544369801605,0.5631442825075366,0.5574289707030688,0.5534183560843713,0.5577869959942041,0.5517510177722055,0.5526527781202185,0.5482616197268351,0.5471340857361415,0.5524755903989236,0.5420342204376132,0.53922999449861,0.5428632681769837,0.5421471599995369,0.5401934095960719,0.5389177690612824,0.5404760055408832,0.5299069689070894,0.5332944983973636,0.5364667256454523,0.5346268712549803,0.5338987178019702,0.5296115339576221,0.5270163272234195,0.5284424031529116,0.529373827861161,0.5296622923966442,0.5265106434220952,0.5300457695291154,0.5237752507083169,0.5221326771439353,0.5216489907352289,0.5225920649596718,0.5215461562116317,0.524037746233331,0.5176456425591948,0.5147338513580916,0.5168483131122582,0.5220285103024036,0.5213845797870197,0.519795439026711,0.5175973630731946,0.5184431989089818,0.5146564227144987,0.5089247935997431,0.5150385543873623,28.44124758886091
train,sample_0026,0.5624695176686817,0.5580833717729959,0.5659128475872915,0.5648171784686316,0.5712197119086189,0.5791633564454295,0.5820412010867031,0.5822397761398079,0.5907535130271607,0.596468734687014,0.5999738876925318,0.6058190551515269,0.6089473777113998,0.6154123185178506,0.6192411189558688,0.6263346821264392,0.6343623063053051,0.6390548212423013,0.6444255276649447,0.6485237424606525,0.6540767283561396,0.6642460620296524,0.66751102835924,0.6755440632246326,0.6800230303234766,0.6834103716402056,0.688505588950532,0.6956122248855323,0.7011819431195199,0.710975642549596,0.7099488417640419,0.7141465580731751,0.7219716930635982,0.7281386001352406,0.7336570343064647,0.7368839521819256,0.7396300137757075,0.7463493051099577,0.7494061706325676,0.7508118299967309,0.7577394208357935,0.7629797627370024,0.7623968922611681,0.7604098751830475,0.7678353340583173,0.7724945129252312,0.7739470634453218,0.7769533542602831,0.7811416598287195,0.7853976905752791,0.784366610517174,0.7827213338003922,0.7845949773025199,0.7927610186721534,0.7906002164227562,0.7951026106455983,0.7915746780815743,0.7915672598373213,0.793828012502624,0.7943540481287101,0.7980216532817133,0.798370417697598,0.7956249899960777,0.7908857909227796,0.791028951531356,0.7880493956893874,0.7895096491169937,0.7913857207922846,0.7873423977132044,0.7903745773910891,0.7907452415389515,0.7870122633874723,0.787209542049379,0.7865461190099475,0.7802980030837956,0.782954146431607,0.7757865011526112,0.7751766405270575,0.7690605372463202,0.77010332542351,0.7655926956071204,0.7650947475285684,0.7576379279448258,0.7546809245420443,0.748865064851785,0.7434813570696714,0.7399853314426024,0.7380790817130333,0.7362348133805998,0.7294613583994478,0.728023754620317,0.7243998405705383,0.711738279215633,0.7122342511193525,0.7053970797636625,0.7021506992423284,0.699836485480183,0.6909315843884553,0.686636814263141,0.6810644809025961,0.6809419829473256,0.6724682483292359,0.6657600146780198,0.6606418584925815,0.6588638246672575,0.6551208609096337,0.6530592593015931,0.6481059493604223,0.6411765313927983,0.6387083321447298,0.6315827159516135,0.628424513250581,0.624263190002574,0.6208539940473751,0.62174681192971,0.617554005100788,0.6121232964657151,0.6092627340947483,0.6043648869584816,0.6033695561294916,0.6029618926006107,0.5996787610229762,0.5959901874309238,0.5932077594849848,0.5944688757002028,0.588942434913146,0.5898377361667986,0.5860608444740145,0.5919399951246117,0.585779563587412,0.5871566597918604,0.5873909778301882,0.5888815488945385,0.5849883952894346,0.5845683944861975,0.5820248688417826,0.5827181618735069,0.5805593784894061,0.5827925386123354,0.5829206042804209,0.5884839317640179,0.5838303042912337,0.5809317275512011,0.5837826383665331,0.5854397365151431,0.5823689347032996,0.5843643326106144,0.5893718797010655,0.5848666228783941,0.5863287590151767,0.5874513756584135,0.590625465822048,0.5830355283515978,0.5877833042379212,0.5896508446909071,0.5833601898626395,0.5875246983284432,0.5876562990237603,0.5836445750483376,0.5861812904755406,0.5857095324574573,0.5849606400556595,0.584668148980667,0.5802422970446649,0.579908268209338,0.5800114901247482,0.5790488507286109,0.5765924955826325,0.5788370259862649,0.5729536600705747,0.5740550124307703,0.573428193525881,0.5715662880855347,0.5658165557511569,0.5664304318416897,0.5689150580108073,0.5647792188527102,0.5619600894106443,0.5604681007358332,0.5606733350888423,0.5555143233387378,0.5546939800840242,0.5545188203924154,0.5526410126931527,0.5494347278832615,0.5490114306999916,0.5461020565899857,0.5403503985312694,0.5389673488520473,0.5408035831943256,0.537037147811409,0.5372166613049503,0.5341499718826414,0.5322467369727524,0.5327277738122578,0.5268136818478437,0.5321193855753058,0.5276998116344217,0.5219420904475037,0.5232209528121285,27.848141803921536
train,sample_0027,0.5506013650338271,0.5520810131171043,0.5582035989692911,0.5614885093279072,0.5673080101762644,0.5643762160502394,0.5757107875177621,0.5792481487424188,0.5839685035817146,0.5856305704976463,0.5919129411985855,0.5988438780538061,0.607968385775867,0.6060656630103741,0.6111060983087439,0.6115663386125669,0.6219222287222029,0.6285210930302693,0.6305782811933673,0.6386105639271954,0.6393509705753219,0.6475020454084446,0.655058946959838,0.660337390448419,0.6661258833025989,0.6694738555418369,0.6755015447891306,0.6808319701354888,0.68693393563723,0.6846003116313766,0.695666317924584,0.6993958549526886,0.7055518766437867,0.7065594163680298,0.7152466303263972,0.7165051425560119,0.7223551958705163,0.7234736282364712,0.7258705735431695,0.7323305374378297,0.7344371873647259,0.7364863895544368,0.7450850940247767,0.745314577618786,0.7434118371136442,0.7508707717109421,0.7560855016331223,0.7553791079435737,0.7587192074608715,0.7555842204699941,0.7597620753326447,0.763369558127132,0.7635703792326236,0.7653413681070433,0.7655243582792792,0.7720150145513358,0.7709791309548181,0.7728280161046188,0.774410374892051,0.775207091545524,0.7736052625770524,0.7729288247205855,0.776860033380824,0.781451095137838,0.7715855957784885,0.7785917339538957,0.775978503536761,0.7796238761876554,0.7773369973768198,0.7760237760076317,0.7758883098439202,0.7764041612008581,0.7776714380201692,0.7745794055081258,0.770942248365604,0.7738138856008963,0.7730234892947223,0.7688031043705752,0.7689584721914869,0.7677818992420382,0.7680613856785787,0.7682667532759471,0.7664265046565505,0.7671940432288225,0.7593333814776494,0.7618681440401025,0.7593151526671755,0.7567856403609058,0.7516023486609031,0.7552094109572179,0.7534598174211777,0.7508960256256028,0.7491103548167496,0.7453303685698143,0.7408471313052616,0.7356091624039124,0.7375327021101719,0.734570206339692,0.7318261290220027,0.7374025804739166,0.7287940250870028,0.7269988459720832,0.7207122588739647,0.7210004733699796,0.7150127393434405,0.7145690639924633,0.7110828899738226,0.7081433308981141,0.7057169899845905,0.7038256853498771,0.6942710380896202,0.6984088171862575,0.6938026417192146,0.6884804107342495,0.688772558957955,0.6859519566902021,0.6812177820838157,0.6780371578242714,0.6761238065703801,0.6687834559506804,0.667387233307758,0.668197918497909,0.665311009157798,0.6594266058772137,0.6620833849778648,0.6542398514349508,0.654186775662976,0.6468305063425717,0.6443363889208372,0.6355133932197279,0.6378850775261329,0.6293948631800925,0.6309492849483984,0.6237672773340897,0.6205354456167835,0.6217979903815195,0.6179986352486122,0.6138405847738798,0.6094597268440503,0.6079424166064566,0.602951372025459,0.600459227555355,0.5947767733290306,0.5952061201518039,0.5899219289042555,0.5857256890504131,0.5861595668316733,0.5819329422309328,0.5785526474218194,0.573097273480768,0.5705183647905184,0.5659762201384317,0.5690601849295224,0.5626115571918872,0.564342441153078,0.5593838317414201,0.5586614726399187,0.5575927279044878,0.5501002866477676,0.5501407233631265,0.5466393729856537,0.5429611561088286,0.5423073477682014,0.5391624864595801,0.5427730531343204,0.5371507184847429,0.5428954947171971,0.5315837296319053,0.5314083420873993,0.5290512186614844,0.5297307295893543,0.5265016862206069,0.5259553163318124,0.5252551136104777,0.5232334359579834,0.5213001847433593,0.5216164708088973,0.5213732093966558,0.5214469202958086,0.5183889415662332,0.5165400856584416,0.5122683442154791,0.5166647151506831,0.5092720433753944,0.5197294659278843,0.5177890088046501,0.5164085486405163,0.5100891458750608,0.5101729411028773,0.5064316283321599,0.5116399207110379,0.5075915295975902,0.5023936426677782,0.5061497952723428,0.5042007140484536,0.5086361810394958,0.5072375208991862,0.5049540114414555,0.5064563397495622,0.5024818899897505,31.810073163433913
test,sample_0028,0.5026611482709779,0.5031448519118575,0.5047426750924275,0.5036662228700283,0.5038352837747554,0.5001617669561367,0.5042445990462625,0.5053174071220676,0.5062992459130662,0.5087551480524638,0.5057896563380598,0.5135207531092438,0.508235672890908,0.5109536268885909,0.5078187612419474,0.5135900799737002,0.5052847571723598,0.5073127104613406,0.5102343192575567,0.511395902274202,0.5145834120285129,0.514326910420509,0.5159428038086872,0.5203752732288245,0.5177394659942748,0.5188977946910562,0.5215372486209248,0.523156978502408,0.5245471366131089,0.5248314439809048,0.5319114089228342,0.5259282902531234,0.5332689104592886,0.5328713386834814,0.5323699747954281,0.5394031172551708,0.5386711285223782,0.546996960446266,0.5419412795329399,0.5456698944904189,0.5461348105567537,0.5513814422551362,0.5584438802091062,0.556843431992049,0.5615034606656879,0.5661507399370923,0.5660549355137957,0.5723696291495338,0.5717532999059995,0.5762215032668065,0.5772315813155035,0.587713684675371,0.5937275498275536,0.5904263880927562,0.5945310506285484,0.6069101588565644,0.6075808269603702,0.607521162670013,0.6112893282926094,0.606495023073224,0.6221553133030222,0.6235822666150291,0.6278940063478915,0.630754365553344,0.630238651917516,0.6365207206069659,0.6413545650251612,0.6428871633740303,0.6496101284229375,0.6524944705621452,0.650493662590613,0.6578926034485484,0.6615202185342373,0.6612595195881179,0.6651095240484037,0.6654290321185462,0.671213745232131,0.6725506737305924,0.6758351316009314,0.6816875273471805,0.6780737459187038,0.6808408679639414,0.6806254849513718,0.6849079900421501,0.683201995274506,0.6825088579206271,0.6811288334118331,0.6866182899472214,0.6860063937065612,0.6887224461227256,0.6902403059499389,0.6908061864067033,0.6871542227910847,0.6890323164367016,0.6882836727577035,0.69001297485103,0.6871252316130146,0.6942949190062031,0.6905960774231567,0.6887526836653934,0.6886851011649493,0.6880433929238863,0.6849537698059349,0.6874047953331959,0.6914177010765427,0.6923610046717857,0.6907128324403271,0.6892823822687071,0.6920911504755938,0.6854028359090807,0.6935103208523812,0.6938820627331862,0.6913031207408981,0.6986951317658283,0.6958036082501801,0.6960611541622533,0.6979216038486499,0.6993074744290289,0.7101656811667829,0.7042303336197479,0.7080929156139955,0.7049161739566806,0.7104839750555502,0.7152738421766214,0.7221352258209036,0.7195820106109196,0.7220604802659807,0.7243751993399389,0.7293027416647655,0.7296893522089799,0.7371266239115304,0.7390129680335912,0.7357543994031276,0.7395626363762435,0.7461084417526785,0.7497530020440552,0.7479626765367453,0.7555886667538327,0.7562850791411173,0.7579738318425018,0.7600024294589742,0.764654159766047,0.7654018607037436,0.773953492397597,0.7784590319159965,0.7740785319238997,0.7794293542130015,0.7785821980821115,0.7805294433705616,0.7843315699522835,0.7819320829817791,0.7833518474723122,0.7863371510742969,0.7854768118844273,0.7908889615507377,0.7830817322736099,0.7852099459853239,0.7834241362987644,0.7854585800983717,0.7799849062642714,0.7760595317692279,0.7777337162976902,0.7746716891618894,0.7717261692522983,0.767357845371625,0.7635493934680275,0.7606951900890604,0.7573286472935268,0.7541072836451247,0.7472875215133661,0.7378692001641154,0.739335521031353,0.7338276484505714,0.722214624555019,0.7215498469612134,0.7111051381827309,0.706404510094421,0.7022742269154554,0.6952086797499235,0.6906693229152211,0.6819988985817635,0.6781209257171126,0.6711230027967735,0.6698146852723348,0.660122033443788,0.6496974162612079,0.6451759198873692,0.6353637721875312,0.6343048857723702,0.6229796699876465,0.6136995705548667,0.6187214105704694,0.611955916393504,0.5982404817900324,0.5971208664367739,0.5904615569550102,0.5835603114367659,0.5796597807628356,0.5732442985938606,0.5717656004679107,8.947885429068746
test,sample_0029,0.5336362269115467,0.5366683817597961,0.53834781972667,0.5408084862089806,0.5441118525763985,0.5492687159680791,0.5493527964904381,0.5549548786795114,0.5550365483621111,0.559983805938106,0.5579714442805392,0.5616035682157414,0.5624156904281095,0.5728368290114272,0.5760050054795691,0.5794002103441159,0.5826109070490385,0.5858451693339903,0.5933732696740419,0.5944167617918316,0.5959283164541505,0.5996420243290183,0.6069882232810202,0.6121389423571011,0.6131007104618221,0.6199089249517153,0.6191091842796405,0.6267064154963604,0.6318452104300133,0.6371030070166639,0.6392206475469819,0.6476624586429096,0.6497979033255707,0.6570728690311901,0.6610346446429431,0.6632476804405931,0.6700364760182752,0.6639646308607401,0.6755937236758635,0.6778331878056519,0.6855488128873648,0.6819983779163072,0.6952262425161254,0.6924668870489262,0.6972881494338832,0.7004076084661945,0.7100449906414095,0.7070313776264849,0.7135921783400381,0.7163451729386505,0.72179319421802,0.728242118302057,0.7300024653305754,0.7317727726999501,0.7322476364835647,0.7381687216784337,0.7399302120434543,0.7500847827365319,0.7447888526679698,0.7537764545003205,0.7534570885078984,0.75766479870703,0.7601266333320257,0.7644627236556023,0.7664006809346118,0.7629199209856516,0.7664295777138714,0.7700929922440425,0.7697540784096555,0.7767095520475779,0.775389999121095,0.7747770264413445,0.7793417955147877,0.7794823681404098,0.7771952486330524,0.7736400963915119,0.7719568382937262,0.7731734844137375,0.7797598857944089,0.7759886108947647,0.7685727796756914,0.7744404738131223,0.7718162072930076,0.7657541305501163,0.7665140261370611,0.7642086938255448,0.7586501312525035,0.7552856511499058,0.7549798726022421,0.7511448188683819,0.7483941062159924,0.7471452286564889,0.7367504420190751,0.7355776036337235,0.7342537177060896,0.7275183110918071,0.7191906317997795,0.7225191651453777,0.7115884640471365,0.7154520412051414,0.7060898258786774,0.7059288750025445,0.6962821855240444,0.6923137425093522,0.6887758268039502,0.6851134528667536,0.6845553374792003,0.6797861752763787,0.6757008467582937,0.6726752200090371,0.6663350652042168,0.6582783530828368,0.6526222278209148,0.6522745413109032,0.6532602525533607,0.6446947819132759,0.6472992245031297,0.6403851902717927,0.6401138423336313,0.6339136644511189,0.6373074405047989,0.6286701898266814,0.6299720833405755,0.6301487005036099,0.6244900287142525,0.6203392548843867,0.6201639652142621,0.627336757929898,0.6196543219826082,0.6229310957599891,0.6159620123692731,0.6240228626082281,0.6196313556997408,0.6200775728040746,0.6192673790726839,0.6168785457835938,0.6144847684459188,0.6175702138246338,0.6154218902536677,0.615972381381507,0.6159092326883323,0.616200669857346,0.6168418923430664,0.6111181691905971,0.6182839150814858,0.6171000482282631,0.615579042507198,0.6161248239306232,0.6164096341497498,0.613764139318131,0.6137013243253792,0.620928520810941,0.6134761257074408,0.6165876852360616,0.6172659436141638,0.6115990649565227,0.6105829289077845,0.6135140332018943,0.6085492464257892,0.613784928269037,0.6074153424885602,0.6115267961307685,0.6071285787033347,0.6014987403505409,0.6080647669172767,0.6047179133466618,0.6041809946073381,0.603039839317373,0.596938034008642,0.5904137974078102,0.592423997445643,0.5952563401439148,0.5884283633133942,0.5889341169199539,0.5871193884028495,0.5830180762645605,0.5800135054498395,0.5728774237860388,0.5733786310114131,0.5693560869876674,0.5686688290212714,0.5654247568627627,0.561785699735222,0.557451984765461,0.5590273283108467,0.5515673963309189,0.5487375428961787,0.5505977178732511,0.545630468404193,0.5456876649058165,0.5381930983604505,0.5335376673305248,0.538569024531148,0.5338178165608749,0.5250103521743567,0.5292972234359579,0.5263598673131163,0.5239498976199444,0.5237167902130342,0.5225669351458585,26.689055697677393
train,sample_0030,0.5477165020352363,0.5476008195997996,0.5524261760133331,0.5577826755503934,0.5577129172695514,0.5602665996215216,0.5686956718099193,0.5640803773537217,0.5696709107505883,0.5769186558342265,0.5785453944508201,0.58533376239063,0.5906853914208738,0.5895792163510144,0.5978432989208042,0.6028701054923348,0.6059380645376387,0.6123828783037307,0.6126990167524118,0.6222409647391801,0.6292982795706282,0.6319613577450892,0.6359400855399634,0.6401432157546078,0.6506069155045825,0.6543840581385457,0.6610566195886992,0.6642213204900458,0.666492121778516,0.6735334288127955,0.6794387583277659,0.6890200010403279,0.6891423902237384,0.6948208606510866,0.7025750316096736,0.7074757842173048,0.7153846129482264,0.720390723174247,0.7225564182814642,0.7234893790989225,0.7295952234586658,0.7315841137063012,0.7389500835340932,0.7473201658536083,0.7546142145379742,0.7568038029759391,0.7564429697143762,0.7605058708887144,0.7666294282304275,0.7706086842651831,0.7747276397193092,0.7808007582076701,0.782634483591577,0.783401553106212,0.7932945577007801,0.7916027885642409,0.800703066549091,0.8002513900384307,0.8057157751223216,0.8084463760437499,0.8110519069623952,0.8108105012823736,0.8112118047917694,0.8196956932401915,0.8161411649390333,0.8208599367357898,0.8226569481307817,0.8259728128977981,0.8253705023560902,0.8289602508581753,0.8299019007237395,0.8317249057790479,0.8316248661613049,0.8298824896176755,0.8306092786968806,0.8322944887879332,0.8298294314069442,0.8294902607446502,0.8315727767880953,0.8266237757911462,0.8240403169194455,0.8188637867361582,0.8203233278887625,0.8152847804922385,0.8139027830560295,0.8117133619512047,0.8081808850632095,0.8000494894664942,0.7949034940348895,0.7958319008335217,0.7885322721243032,0.7875990221823304,0.7859198895191548,0.7767165122306213,0.7711762256496683,0.763248768003356,0.7595729579705367,0.7543280206714816,0.7528169355487442,0.7406266599852687,0.7370172619045283,0.7330155621543007,0.7270861001146949,0.7215912915812901,0.7153805139223061,0.707564731795038,0.7012541739200896,0.6957869860487881,0.6846494257973077,0.6853978901536886,0.6810418639132562,0.6704459446131614,0.6658277007849338,0.6634744921504043,0.6582141490779018,0.6538257345408505,0.6440574211993761,0.6435070914216107,0.6414914342519361,0.6329584930483605,0.6257702835740652,0.6195206148853453,0.6227608825779456,0.6167276544921082,0.6140584001790075,0.6150989806724284,0.6069913733813223,0.6021673427009319,0.5993387834558879,0.5956664645755784,0.5962391786963169,0.5885515653677729,0.5876079201425155,0.5842120786739469,0.5803670768615536,0.5867441496097316,0.5756529304956715,0.5771440330131158,0.5751235640301936,0.5740477988741959,0.5688084554473735,0.5699171035794263,0.5684631723337088,0.567307367958911,0.5677612931105077,0.5594292147759884,0.5626940785979455,0.5617472289512523,0.5596176242077251,0.5601446443536894,0.5545572909111333,0.556228626688754,0.5564267233593516,0.5522799374284397,0.5523349289015996,0.550616013189759,0.5524309289449115,0.5513355167672784,0.5483613526327404,0.5441130160516938,0.5481396116388759,0.5474375548296806,0.539886534177058,0.5423794161799043,0.5396505514753049,0.5444499161217635,0.5414037568503034,0.5435031102631137,0.5386712228902839,0.5327998320627015,0.5426752345083278,0.532616927635227,0.5327491673888032,0.531629089849753,0.5373607724739811,0.5318137429369062,0.5270474315923033,0.5323173900359227,0.5283961181711557,0.5281340405545276,0.5251590291204049,0.5250021691662801,0.5175024836728039,0.5214753519046336,0.52069090283125,0.5197116179880453,0.5202907820254462,0.5201343885381553,0.5186171455964431,0.5194999447894412,0.5159628633992551,0.5143170395037153,0.5156214082210175,0.5116056122492639,0.5175470638665723,0.5146508619310217,0.5133822355352201,0.5111735840398881,0.51534306843938,0.5131857619392028,30.553441212624225
