1100;1105;1110;1115;1120;1125;1130;1135;1140;1145;1150;1155;1160;1165;1170;1175;1180;1185;1190;1195;1200;1205;1210;1215;1220;1225;1230;1235;1240;1245;1250;1255;1260;1265;1270;1275;1280;1285;1290;1295;1301;1306;1311;1316;1321;1326;1331;1336;1341;1346;1351;1356;1361;1366;1371;1376;1381;1386;1391;1396;1401;1406;1411;1416;1421;1426;1431;1436;1441;1446;1451;1456;1461;1466;1471;1476;1481;1486;1491;1496;1502;1507;1512;1517;1522;1527;1532;1537;1542;1547;1552;1557;1562;1567;1572;1577;1582;1587;1592;1597;1602;1607;1612;1617;1622;1627;1632;1637;1642;1647;1652;1657;1662;1667;1672;1677;1682;1687;1692;1697;1703;1708;1713;1718;1723;1728;1733;1738;1743;1748;1753;1758;1763;1768;1773;1778;1783;1788;1793;1798;1803;1808;1813;1818;1823;1828;1833;1838;1843;1848;1853;1858;1863;1868;1873;1878;1883;1888;1893;1898;1904;1909;1914;1919;1924;1929;1934;1939;1944;1949;1954;1959;1964;1969;1974;1979;1984;1989;1994;1999;2004;2009;2014;2019;2024;2029;2034;2039;2044;2049;2054;2059;2064;2069;2074;2079;2084;2089;2094;2100
0.534147;0.538596;0.542900;0.539547;0.542058;0.548192;0.552910;0.547672;0.552664;0.558234;0.562643;0.566197;0.564381;0.572526;0.576191;0.573312;0.580990;0.584749;0.588907;0.593260;0.598496;0.603402;0.606438;0.604862;0.608726;0.617768;0.617792;0.625249;0.626657;0.630141;0.635373;0.635842;0.640975;0.641686;0.648232;0.653898;0.657435;0.660569;0.663710;0.668150;0.671666;0.679409;0.681413;0.678173;0.683555;0.684827;0.689998;0.692560;0.693732;0.695529;0.700327;0.704730;0.706105;0.707407;0.712912;0.714156;0.720679;0.718659;0.717289;0.723703;0.727935;0.727090;0.728871;0.732177;0.729956;0.732700;0.739829;0.735933;0.743952;0.741616;0.744975;0.747505;0.744472;0.745264;0.745142;0.745273;0.749220;0.751110;0.749462;0.749858;0.750731;0.745943;0.748372;0.745950;0.744818;0.742089;0.743985;0.748485;0.745607;0.744035;0.738000;0.744963;0.746398;0.737323;0.739955;0.740953;0.736705;0.737511;0.732998;0.733062;0.729727;0.728343;0.726612;0.730173;0.722234;0.719262;0.719659;0.715329;0.716682;0.712225;0.713301;0.703982;0.712065;0.703774;0.704511;0.701835;0.696243;0.698870;0.695266;0.691337;0.688992;0.692251;0.690040;0.686392;0.681427;0.680964;0.679016;0.677689;0.675181;0.674786;0.677230;0.670972;0.671760;0.670465;0.669867;0.667820;0.661312;0.663487;0.658485;0.658287;0.652288;0.653293;0.649951;0.641430;0.644809;0.643687;0.644523;0.639694;0.638722;0.636672;0.632649;0.627204;0.630460;0.620539;0.624898;0.623851;0.618072;0.615674;0.617686;0.613332;0.612043;0.606981;0.608357;0.605994;0.602881;0.596038;0.599046;0.597462;0.591697;0.591744;0.590376;0.583375;0.584413;0.577031;0.578549;0.572878;0.574728;0.569200;0.565336;0.568674;0.559251;0.558875;0.560847;0.558242;0.554488;0.555277;0.546649;0.542040;0.545675;0.541654;0.537375;0.543400;0.531755;0.530606;0.531229;0.523406;0.532979;0.528719;0.526148;0.524503
0.562776;0.567459;0.566667;0.574605;0.579365;0.584415;0.592387;0.594444;0.597212;0.608657;0.607541;0.611037;0.621979;0.623461;0.629394;0.629544;0.643446;0.645325;0.650519;0.658970;0.664820;0.670412;0.674714;0.682645;0.684334;0.688851;0.697373;0.699983;0.699782;0.708900;0.709451;0.713845;0.718315;0.722355;0.725227;0.721919;0.728715;0.729175;0.733949;0.733810;0.734861;0.734676;0.734494;0.733834;0.728890;0.731498;0.736055;0.735230;0.729666;0.730161;0.724247;0.725284;0.722047;0.722430;0.719408;0.710967;0.709747;0.705745;0.705754;0.702773;0.699330;0.694209;0.692180;0.686552;0.687139;0.683387;0.677118;0.669028;0.673591;0.670613;0.665461;0.660117;0.660450;0.657327;0.650951;0.654389;0.647886;0.650334;0.647899;0.649129;0.648678;0.645274;0.644605;0.644839;0.645051;0.643858;0.643046;0.645247;0.644805;0.647231;0.649958;0.646013;0.646347;0.650932;0.651920;0.652120;0.657282;0.655467;0.658970;0.661401;0.659282;0.661955;0.664481;0.665367;0.666878;0.666330;0.671592;0.675791;0.678246;0.677765;0.680920;0.680445;0.683938;0.688054;0.681675;0.686106;0.687555;0.690867;0.692705;0.687352;0.694200;0.693284;0.690024;0.693664;0.689864;0.691762;0.689019;0.687271;0.689791;0.681021;0.683890;0.681534;0.683490;0.680976;0.682071;0.680301;0.674856;0.680806;0.670834;0.674953;0.667911;0.668050;0.660693;0.663975;0.657781;0.657197;0.656285;0.650092;0.645970;0.652617;0.647301;0.643495;0.640100;0.634608;0.630809;0.631687;0.626279;0.628793;0.623526;0.617730;0.613616;0.612863;0.613384;0.607444;0.606447;0.602442;0.602316;0.599176;0.589978;0.590946;0.588278;0.583224;0.581948;0.577262;0.572457;0.574649;0.572101;0.573008;0.564653;0.562691;0.560525;0.554751;0.556065;0.552710;0.550704;0.547390;0.545096;0.543354;0.537901;0.535724;0.535866;0.534687;0.528662;0.531763;0.528356;0.521957;0.525114;0.526337;0.518301;0.514117
0.555862;0.557197;0.560726;0.561173;0.572670;0.574619;0.576592;0.579801;0.587519;0.591732;0.599986;0.599395;0.600374;0.611489;0.620366;0.615583;0.624480;0.627715;0.632333;0.638385;0.639964;0.646811;0.653084;0.658881;0.662741;0.663722;0.670076;0.677404;0.680483;0.684292;0.691023;0.691819;0.695798;0.698726;0.700834;0.702750;0.704935;0.708610;0.707399;0.716148;0.716871;0.715599;0.722482;0.718085;0.722914;0.716420;0.713763;0.718873;0.718302;0.716852;0.719651;0.712240;0.716598;0.715242;0.717288;0.714295;0.710242;0.713545;0.707926;0.706265;0.705054;0.702006;0.704478;0.696997;0.689005;0.695603;0.691872;0.689368;0.687831;0.687314;0.687196;0.682160;0.685265;0.683873;0.679846;0.683431;0.681629;0.677972;0.682136;0.678848;0.676639;0.681021;0.677867;0.683094;0.673841;0.676746;0.677321;0.684330;0.684727;0.683645;0.678489;0.686311;0.684860;0.688333;0.692063;0.691510;0.691776;0.691714;0.695904;0.698072;0.695873;0.707210;0.703840;0.703973;0.706001;0.708646;0.708444;0.706351;0.709184;0.712491;0.713596;0.713973;0.719102;0.715530;0.716747;0.715675;0.708388;0.709278;0.713583;0.719297;0.714903;0.711733;0.714512;0.708023;0.704347;0.706222;0.711488;0.700007;0.703307;0.698518;0.695300;0.692798;0.689743;0.691062;0.685059;0.678797;0.677312;0.670895;0.671084;0.667211;0.664312;0.657457;0.654497;0.649203;0.641223;0.641996;0.637456;0.638727;0.629932;0.626057;0.623274;0.618357;0.611864;0.611466;0.609074;0.604559;0.600561;0.601647;0.589214;0.586870;0.586358;0.586510;0.581347;0.578899;0.573008;0.571397;0.569669;0.564886;0.559752;0.558986;0.552033;0.554985;0.550180;0.548821;0.548413;0.547482;0.541944;0.536642;0.536846;0.536554;0.528998;0.531836;0.526094;0.530170;0.523241;0.522545;0.519800;0.519247;0.519850;0.518653;0.517878;0.519105;0.510371;0.517523;0.509870;0.507320;0.509036;0.507118;0.501331;0.502442
0.516450;0.512051;0.508341;0.517990;0.515381;0.515946;0.520595;0.521135;0.522813;0.525494;0.524506;0.528428;0.531563;0.532373;0.533616;0.538822;0.542695;0.537514;0.539129;0.543879;0.546416;0.546743;0.553068;0.553295;0.555695;0.562770;0.560952;0.567147;0.571839;0.568994;0.577691;0.575217;0.580552;0.589009;0.594912;0.594139;0.595129;0.601651;0.603641;0.607286;0.610082;0.615589;0.620773;0.624972;0.631848;0.634714;0.640483;0.644370;0.649020;0.651527;0.660204;0.667772;0.670382;0.673259;0.686103;0.690847;0.688964;0.693320;0.707059;0.708405;0.710487;0.720073;0.717494;0.722956;0.735205;0.734763;0.741909;0.741583;0.750958;0.753205;0.756815;0.757986;0.764693;0.769442;0.772767;0.774731;0.773107;0.773134;0.777166;0.780712;0.778372;0.787344;0.783371;0.784521;0.781896;0.785220;0.785450;0.782429;0.784699;0.780657;0.776832;0.778429;0.780068;0.774930;0.772244;0.768071;0.769910;0.767428;0.768266;0.763263;0.759228;0.756120;0.753629;0.753354;0.749316;0.746049;0.746217;0.740520;0.742361;0.735498;0.734035;0.731123;0.723227;0.727632;0.722020;0.718304;0.716073;0.711189;0.711259;0.711646;0.704016;0.704213;0.702911;0.697213;0.695099;0.698160;0.696252;0.693393;0.686294;0.688031;0.688331;0.686331;0.687251;0.685113;0.680871;0.682189;0.679276;0.680925;0.678144;0.678879;0.674839;0.669637;0.670249;0.670461;0.669408;0.674093;0.665297;0.667538;0.669029;0.662833;0.661798;0.659874;0.664032;0.662187;0.655226;0.656245;0.653200;0.653532;0.650638;0.649431;0.648800;0.646103;0.642269;0.638408;0.632620;0.635968;0.630019;0.627194;0.630217;0.617697;0.622314;0.618577;0.613995;0.612314;0.609448;0.601936;0.600337;0.601335;0.593849;0.598366;0.588976;0.588308;0.584412;0.582263;0.576811;0.572502;0.568719;0.569019;0.567477;0.562169;0.559274;0.558760;0.549780;0.551600;0.548069;0.546607;0.544599;0.538811;0.539220;0.538483
0.548369;0.547040;0.553440;0.555271;0.561537;0.564724;0.568449;0.568645;0.576503;0.580374;0.585406;0.587185;0.594546;0.594644;0.597204;0.608588;0.609935;0.614115;0.619052;0.626273;0.627646;0.626984;0.635580;0.637798;0.645416;0.652178;0.653843;0.657429;0.660178;0.667726;0.667653;0.666097;0.673709;0.677922;0.673731;0.682665;0.679463;0.686984;0.688430;0.686163;0.689969;0.692210;0.690361;0.688033;0.693233;0.693142;0.690333;0.698315;0.693077;0.693569;0.690334;0.690503;0.687771;0.691549;0.684325;0.684009;0.683594;0.674921;0.682325;0.679863;0.683346;0.679739;0.681391;0.678299;0.670819;0.673494;0.675054;0.668448;0.665371;0.670568;0.674258;0.672385;0.671598;0.665940;0.665098;0.669560;0.672722;0.670941;0.671739;0.675192;0.680538;0.674962;0.674695;0.680318;0.683965;0.685952;0.685051;0.694473;0.694738;0.695296;0.696374;0.703090;0.707484;0.709788;0.716242;0.717582;0.723004;0.727672;0.734894;0.735029;0.738935;0.739617;0.743071;0.747356;0.755768;0.755472;0.757302;0.764560;0.768879;0.769286;0.771665;0.771385;0.778349;0.775509;0.779083;0.772443;0.775526;0.778510;0.777327;0.777845;0.775269;0.774238;0.774319;0.775323;0.774286;0.772328;0.764962;0.762472;0.760627;0.754222;0.750286;0.741533;0.746422;0.738568;0.728968;0.724318;0.723578;0.718349;0.707844;0.708204;0.701890;0.686910;0.685119;0.679341;0.672505;0.666589;0.666651;0.658800;0.648296;0.647918;0.638658;0.632954;0.626007;0.621339;0.613099;0.614051;0.603287;0.601449;0.595053;0.593516;0.589605;0.579094;0.577475;0.575150;0.569788;0.565146;0.567672;0.556832;0.554793;0.558369;0.547035;0.545418;0.547567;0.542269;0.541187;0.536572;0.535989;0.531863;0.525961;0.529181;0.531586;0.523252;0.525964;0.526868;0.519396;0.518420;0.520502;0.516011;0.513186;0.516706;0.517051;0.516775;0.514789;0.510428;0.513491;0.509002;0.510493;0.507242;0.510530;0.506200
0.548174;0.546700;0.546379;0.552525;0.557066;0.557511;0.560508;0.563980;0.568340;0.571914;0.576278;0.580297;0.588841;0.588207;0.590654;0.595703;0.600642;0.605855;0.607963;0.617540;0.617644;0.624619;0.626554;0.626697;0.629467;0.635842;0.640510;0.642493;0.644988;0.649072;0.654808;0.649515;0.660049;0.663556;0.665866;0.665568;0.674152;0.670710;0.676140;0.677341;0.680221;0.683662;0.686856;0.680159;0.682762;0.686226;0.685987;0.683225;0.686621;0.682283;0.689004;0.685605;0.683917;0.686900;0.688214;0.684565;0.685866;0.683079;0.680569;0.683836;0.681254;0.682190;0.680903;0.681929;0.681473;0.683134;0.678148;0.680884;0.682174;0.681394;0.684964;0.683558;0.684363;0.685117;0.686238;0.690092;0.682016;0.688538;0.689895;0.697230;0.693325;0.697584;0.696597;0.706920;0.709667;0.709999;0.711873;0.716965;0.716018;0.721742;0.722793;0.726540;0.730542;0.736167;0.736688;0.741078;0.748062;0.752418;0.753437;0.751060;0.760304;0.762351;0.769811;0.767736;0.766683;0.783352;0.783316;0.783525;0.785687;0.784002;0.787169;0.793491;0.790909;0.796506;0.795039;0.792606;0.790708;0.796092;0.796612;0.790077;0.791496;0.793647;0.784023;0.781282;0.779655;0.781121;0.769667;0.770550;0.765641;0.761519;0.757323;0.751414;0.747797;0.741554;0.733792;0.730416;0.721725;0.716709;0.712324;0.700198;0.694825;0.688714;0.678473;0.675137;0.668144;0.663551;0.657941;0.643642;0.641669;0.635204;0.628006;0.629934;0.621365;0.614826;0.606055;0.602153;0.591860;0.593403;0.579258;0.582733;0.574574;0.570689;0.562553;0.561927;0.554245;0.552104;0.554265;0.543478;0.539320;0.542534;0.542947;0.533003;0.530574;0.530441;0.526979;0.524883;0.518778;0.525124;0.518073;0.516667;0.517085;0.515667;0.519594;0.515305;0.514224;0.512760;0.511314;0.508567;0.507293;0.501791;0.504674;0.508715;0.503159;0.509877;0.504807;0.504146;0.503851;0.503119;0.502658;0.505793
0.607035;0.609705;0.616201;0.628414;0.631584;0.645556;0.648317;0.659670;0.667200;0.676215;0.681357;0.696575;0.699971;0.710147;0.727139;0.734273;0.739085;0.747377;0.761748;0.768539;0.781821;0.790157;0.795034;0.808419;0.812913;0.820850;0.830261;0.838024;0.844543;0.847260;0.858230;0.862378;0.872408;0.867600;0.881308;0.883740;0.888446;0.891960;0.888288;0.893471;0.893052;0.893316;0.892901;0.892471;0.895728;0.888608;0.887818;0.887018;0.886464;0.878905;0.872932;0.874159;0.868245;0.855661;0.859202;0.852379;0.841561;0.833514;0.833941;0.823239;0.814441;0.811084;0.806149;0.793719;0.782982;0.780524;0.769399;0.763830;0.758610;0.751169;0.741889;0.730977;0.723596;0.717687;0.711638;0.702934;0.691193;0.688439;0.677655;0.669591;0.669919;0.662274;0.660998;0.653682;0.649610;0.645497;0.643185;0.636582;0.631451;0.628008;0.623986;0.618016;0.617456;0.615643;0.607155;0.602997;0.599627;0.600609;0.595175;0.596620;0.591816;0.594201;0.592243;0.587300;0.587635;0.580539;0.583471;0.579159;0.578982;0.577189;0.574411;0.574482;0.571458;0.569142;0.566042;0.570606;0.566575;0.567090;0.567169;0.569745;0.567878;0.566828;0.560940;0.565306;0.568502;0.560360;0.562987;0.559634;0.558170;0.559487;0.559439;0.556306;0.555707;0.552058;0.556662;0.554768;0.550622;0.550557;0.546553;0.553892;0.549904;0.549289;0.549946;0.548017;0.548075;0.547113;0.542857;0.542477;0.545516;0.544073;0.541338;0.540129;0.543297;0.536660;0.537711;0.536970;0.536376;0.537681;0.536780;0.531802;0.531742;0.532005;0.535498;0.531842;0.523280;0.530536;0.525436;0.524341;0.526249;0.530794;0.526461;0.527063;0.525768;0.523550;0.524516;0.519001;0.516366;0.520962;0.517435;0.516410;0.515841;0.515037;0.522595;0.517614;0.511799;0.516352;0.516243;0.511871;0.509867;0.511518;0.510155;0.511133;0.515349;0.507625;0.499455;0.502977;0.507399;0.504040;0.507314;0.505439
0.543143;0.544120;0.550244;0.554058;0.550212;0.558770;0.560882;0.563729;0.569380;0.574714;0.576168;0.581357;0.584760;0.588691;0.595636;0.595396;0.603598;0.606538;0.610097;0.610713;0.620521;0.619349;0.625995;0.630561;0.635325;0.638555;0.643165;0.651823;0.650677;0.660282;0.660298;0.662818;0.668055;0.675936;0.676116;0.680392;0.685175;0.684705;0.690323;0.694618;0.697969;0.696454;0.700070;0.707242;0.708749;0.705385;0.714625;0.710263;0.714615;0.719269;0.719969;0.716632;0.725555;0.724326;0.729649;0.726168;0.728061;0.726918;0.730323;0.725822;0.727844;0.737365;0.730446;0.735716;0.732180;0.734124;0.733334;0.727406;0.729783;0.728941;0.731640;0.731752;0.733873;0.727671;0.727674;0.728358;0.724520;0.721556;0.718317;0.720475;0.715626;0.716952;0.719378;0.714181;0.712382;0.706918;0.707160;0.706826;0.702019;0.700392;0.698228;0.697801;0.691261;0.695501;0.684350;0.680908;0.683450;0.676775;0.673343;0.676348;0.672628;0.667394;0.663800;0.659528;0.660113;0.647880;0.649588;0.650930;0.647978;0.645899;0.641712;0.643711;0.640703;0.639767;0.639124;0.639300;0.635228;0.638285;0.636869;0.631409;0.630838;0.629618;0.629308;0.633746;0.634567;0.630366;0.635969;0.634095;0.634326;0.628849;0.632902;0.631594;0.633261;0.638948;0.639630;0.638058;0.637343;0.641570;0.645370;0.642818;0.646884;0.644147;0.647410;0.644146;0.643890;0.646144;0.648821;0.648911;0.652169;0.655158;0.654549;0.652172;0.653023;0.650610;0.652415;0.654493;0.654821;0.652227;0.654184;0.649485;0.650410;0.648950;0.646724;0.654013;0.643652;0.636837;0.638138;0.642480;0.637613;0.638833;0.629241;0.626504;0.624790;0.623951;0.616895;0.616619;0.614085;0.610454;0.609442;0.598920;0.598285;0.594393;0.590725;0.591806;0.583981;0.580445;0.574591;0.573982;0.571957;0.568882;0.556930;0.563328;0.560041;0.552113;0.549037;0.543555;0.544079;0.543984;0.542029;0.539797
0.608558;0.612339;0.625179;0.635535;0.637291;0.643741;0.646723;0.662325;0.670430;0.671463;0.687572;0.696298;0.702870;0.718346;0.726697;0.738418;0.745313;0.755276;0.761927;0.774126;0.780339;0.788017;0.796146;0.802688;0.815798;0.821210;0.828459;0.838791;0.845799;0.851932;0.855665;0.861035;0.865813;0.872016;0.871184;0.878756;0.882605;0.882401;0.885620;0.885163;0.888269;0.887589;0.881994;0.882680;0.886501;0.874384;0.876440;0.876027;0.868206;0.865533;0.852290;0.849765;0.843247;0.838581;0.828633;0.825310;0.819354;0.810687;0.801491;0.793860;0.784261;0.778541;0.766068;0.760263;0.749575;0.741098;0.729875;0.722278;0.708064;0.703949;0.693028;0.684677;0.678634;0.668245;0.659460;0.651332;0.648971;0.639432;0.632393;0.621404;0.619071;0.610861;0.609101;0.595279;0.590210;0.585739;0.579514;0.580587;0.573455;0.569636;0.567355;0.561171;0.559224;0.553161;0.554769;0.545772;0.549582;0.544402;0.540225;0.537852;0.538826;0.534823;0.537428;0.536742;0.535529;0.537197;0.540815;0.533444;0.536764;0.529339;0.534322;0.533910;0.535316;0.533990;0.537690;0.540082;0.541254;0.538878;0.536144;0.545048;0.542124;0.542982;0.546132;0.548264;0.549873;0.549775;0.549941;0.557296;0.561063;0.554438;0.557409;0.567384;0.566886;0.567649;0.564246;0.571730;0.570162;0.574830;0.580972;0.583678;0.580939;0.580743;0.585570;0.587507;0.588591;0.587511;0.596113;0.593588;0.594601;0.596506;0.599395;0.597117;0.598955;0.600866;0.599811;0.598600;0.603311;0.605254;0.598632;0.604892;0.603508;0.600748;0.603566;0.601119;0.601985;0.602027;0.597610;0.596537;0.593444;0.592962;0.592392;0.586415;0.589933;0.585152;0.589590;0.577959;0.578166;0.576426;0.574978;0.569257;0.574594;0.569105;0.568034;0.562285;0.558007;0.558996;0.556189;0.554155;0.553756;0.546503;0.544730;0.542820;0.542130;0.537245;0.541671;0.536483;0.528983;0.531266;0.531814;0.526283
0.507661;0.505784;0.509194;0.513909;0.507368;0.511533;0.512893;0.507667;0.506564;0.517620;0.516493;0.514042;0.516139;0.513596;0.515196;0.517157;0.520751;0.518720;0.522347;0.519686;0.523893;0.524929;0.523229;0.525412;0.524254;0.528226;0.530838;0.528538;0.530514;0.534756;0.529258;0.530945;0.533580;0.530127;0.533454;0.537856;0.533789;0.536648;0.543053;0.545933;0.539263;0.544837;0.544955;0.545588;0.546076;0.545679;0.550086;0.548251;0.547290;0.550737;0.552346;0.555005;0.548943;0.552120;0.555234;0.561883;0.561627;0.561678;0.559165;0.567506;0.562131;0.568643;0.572614;0.578533;0.568728;0.572020;0.577742;0.577043;0.586322;0.580652;0.589901;0.589714;0.591046;0.595515;0.601337;0.602936;0.609978;0.610322;0.614607;0.615236;0.617917;0.621547;0.627678;0.629759;0.637271;0.641797;0.648026;0.650877;0.655962;0.657826;0.662936;0.669334;0.670920;0.678633;0.687264;0.693989;0.693760;0.698140;0.711345;0.711319;0.714322;0.717012;0.731368;0.729678;0.740495;0.741578;0.743889;0.749619;0.756985;0.763675;0.770800;0.770399;0.767613;0.779402;0.780579;0.787202;0.788925;0.796509;0.791052;0.790305;0.797509;0.799648;0.801912;0.805863;0.804445;0.808595;0.810991;0.808176;0.809843;0.815120;0.811049;0.811841;0.815313;0.810392;0.812038;0.810338;0.813580;0.806490;0.808970;0.805650;0.804551;0.807553;0.797454;0.802847;0.799514;0.794775;0.793551;0.790904;0.788112;0.788454;0.783521;0.779264;0.775736;0.777413;0.770861;0.770422;0.762274;0.760453;0.755520;0.751403;0.744383;0.741639;0.739328;0.733198;0.729925;0.723684;0.720696;0.715993;0.710109;0.707144;0.694663;0.691392;0.681486;0.681010;0.675999;0.669810;0.664126;0.657035;0.654325;0.644598;0.639872;0.633352;0.628995;0.621093;0.614516;0.613194;0.605191;0.602074;0.596893;0.591857;0.586552;0.581576;0.573847;0.572517;0.564800;0.562453;0.557186;0.553915;0.552829;0.548935
0.493485;0.500790;0.501040;0.503053;0.508495;0.505090;0.502675;0.506232;0.503737;0.509934;0.502668;0.506741;0.507299;0.502353;0.506872;0.508785;0.511826;0.512604;0.511401;0.515601;0.511554;0.515684;0.517412;0.518684;0.516630;0.524018;0.524559;0.526902;0.526298;0.529330;0.531693;0.534245;0.534737;0.538115;0.539755;0.543143;0.548909;0.553114;0.549491;0.558126;0.560500;0.560612;0.570756;0.570899;0.575275;0.578778;0.587416;0.587141;0.593354;0.596487;0.603613;0.605459;0.613226;0.616725;0.617166;0.628533;0.635917;0.638247;0.644702;0.647134;0.653987;0.661742;0.670292;0.674011;0.679610;0.682752;0.692130;0.699479;0.701225;0.702056;0.718992;0.721123;0.723180;0.732813;0.732470;0.741542;0.743028;0.742107;0.754186;0.756753;0.765126;0.767117;0.773499;0.777204;0.784148;0.786777;0.792796;0.797059;0.797429;0.808522;0.805016;0.807373;0.816846;0.821729;0.822736;0.825740;0.823913;0.831695;0.832287;0.833402;0.842235;0.837676;0.842229;0.837792;0.841175;0.845891;0.843975;0.844023;0.841423;0.849080;0.844376;0.843441;0.840762;0.846277;0.842269;0.841234;0.836436;0.834858;0.840415;0.832667;0.831906;0.829077;0.824818;0.820872;0.815177;0.817250;0.808463;0.805529;0.801663;0.793784;0.788322;0.785797;0.781732;0.777166;0.767364;0.760712;0.756742;0.750345;0.740508;0.738228;0.733790;0.726110;0.719891;0.711577;0.708968;0.701264;0.690894;0.686593;0.676974;0.672330;0.669574;0.661687;0.657747;0.653644;0.644234;0.636813;0.637076;0.629786;0.623034;0.619214;0.610312;0.609856;0.603483;0.600615;0.594806;0.589812;0.587567;0.584646;0.579705;0.570149;0.568476;0.570043;0.565452;0.564632;0.558049;0.555741;0.552643;0.551368;0.550779;0.549686;0.544906;0.540717;0.535080;0.535577;0.535498;0.534188;0.525582;0.525443;0.529781;0.527908;0.525445;0.520787;0.523341;0.527115;0.522554;0.518078;0.515245;0.518083;0.515356;0.517240
0.544701;0.544695;0.551418;0.555838;0.560550;0.560170;0.568444;0.572487;0.571541;0.577098;0.577694;0.578865;0.587677;0.595437;0.595543;0.600722;0.598173;0.606320;0.609662;0.613608;0.625851;0.623247;0.627584;0.630740;0.634002;0.629357;0.639250;0.643859;0.645597;0.651099;0.651834;0.655123;0.658877;0.657948;0.663084;0.661112;0.669007;0.662552;0.664117;0.666297;0.667668;0.670994;0.666138;0.666015;0.669874;0.663601;0.660963;0.658034;0.661463;0.658286;0.660114;0.658502;0.652592;0.650225;0.653458;0.650846;0.644154;0.646827;0.647163;0.639688;0.642446;0.635966;0.635180;0.631794;0.632355;0.633210;0.626477;0.630340;0.625451;0.622930;0.624771;0.618652;0.623612;0.622815;0.622967;0.620799;0.625181;0.623319;0.624946;0.628007;0.628931;0.629793;0.633702;0.635667;0.634783;0.642210;0.644189;0.648310;0.653705;0.657341;0.662431;0.665396;0.670666;0.675843;0.681615;0.684180;0.691504;0.696946;0.700572;0.701502;0.707947;0.714768;0.723900;0.724477;0.732508;0.735074;0.740806;0.747171;0.752373;0.756510;0.759209;0.761113;0.769374;0.768688;0.770792;0.772753;0.781252;0.778044;0.779906;0.780771;0.781786;0.779757;0.782653;0.781913;0.782076;0.781537;0.775169;0.778229;0.776799;0.775451;0.774211;0.773722;0.767248;0.762067;0.761151;0.756683;0.752033;0.747641;0.746353;0.742489;0.732688;0.730594;0.730162;0.724310;0.714209;0.713880;0.705555;0.701675;0.696700;0.693907;0.691084;0.683638;0.679225;0.671664;0.670072;0.661650;0.658146;0.653406;0.646840;0.645453;0.639507;0.634150;0.630376;0.625235;0.624849;0.612823;0.616212;0.607642;0.604707;0.599945;0.595115;0.593558;0.587076;0.587564;0.586163;0.582551;0.573605;0.574870;0.569500;0.569676;0.559946;0.565756;0.556674;0.560446;0.553088;0.548691;0.547503;0.545932;0.544251;0.540564;0.541323;0.532997;0.533461;0.529390;0.530761;0.530316;0.526715;0.527123;0.528937;0.525287
0.601455;0.604847;0.613417;0.621134;0.625913;0.640382;0.646869;0.648377;0.661460;0.670626;0.675847;0.687540;0.697890;0.706243;0.717118;0.724888;0.731319;0.739823;0.746764;0.763365;0.766816;0.776609;0.783241;0.790219;0.803252;0.809555;0.817930;0.822131;0.830572;0.831395;0.842433;0.847598;0.848518;0.859098;0.859037;0.861523;0.864862;0.869582;0.869666;0.872071;0.870568;0.868905;0.877412;0.865911;0.869230;0.867016;0.861979;0.857507;0.853469;0.849723;0.846926;0.843140;0.834731;0.832211;0.821501;0.814119;0.813151;0.805870;0.792864;0.790408;0.779917;0.770936;0.766405;0.756796;0.748778;0.739605;0.736443;0.723601;0.716781;0.712184;0.706381;0.697012;0.684083;0.682523;0.676583;0.668975;0.657258;0.654507;0.653860;0.647249;0.645984;0.636774;0.631188;0.627301;0.626535;0.624616;0.616089;0.611757;0.610888;0.612127;0.604444;0.606197;0.604570;0.603572;0.598067;0.597200;0.595138;0.599680;0.592995;0.597043;0.597647;0.587780;0.594061;0.594997;0.589790;0.597556;0.596927;0.597794;0.594948;0.598133;0.598823;0.598464;0.601036;0.600337;0.598172;0.598124;0.605172;0.597690;0.600925;0.595200;0.604587;0.596325;0.595677;0.597362;0.595530;0.593543;0.594732;0.593552;0.595043;0.593971;0.592816;0.590288;0.592369;0.591861;0.592523;0.587951;0.582139;0.587318;0.583961;0.584378;0.581584;0.575815;0.577026;0.579246;0.574146;0.571942;0.571132;0.570120;0.566837;0.563934;0.565504;0.562050;0.562492;0.560662;0.560835;0.553932;0.550584;0.552350;0.551777;0.547747;0.547022;0.546036;0.543822;0.545166;0.542391;0.538640;0.537660;0.538414;0.532899;0.533512;0.530069;0.531614;0.531616;0.527636;0.524123;0.530619;0.524644;0.523529;0.521166;0.526399;0.522653;0.518221;0.519019;0.518978;0.513849;0.516148;0.512887;0.513275;0.513204;0.513100;0.512619;0.513660;0.506950;0.508897;0.504740;0.509356;0.503160;0.508353;0.504299;0.500584
0.534874;0.540299;0.545585;0.543364;0.546266;0.555037;0.559207;0.558711;0.558318;0.566687;0.571078;0.571146;0.573929;0.578133;0.584760;0.585825;0.584095;0.592780;0.592510;0.599327;0.603446;0.605061;0.607136;0.613334;0.615800;0.618115;0.621637;0.623094;0.629863;0.628637;0.628765;0.629464;0.635228;0.634605;0.638666;0.641406;0.642044;0.643966;0.644482;0.648117;0.640520;0.647978;0.647328;0.645729;0.643639;0.641709;0.643270;0.640368;0.638623;0.637501;0.637081;0.634494;0.635696;0.636261;0.629055;0.629576;0.622084;0.623048;0.618673;0.622518;0.617216;0.614988;0.613252;0.608373;0.607852;0.609144;0.601665;0.601213;0.599246;0.594801;0.597549;0.594562;0.589468;0.590551;0.591029;0.581874;0.585595;0.580731;0.586670;0.583372;0.581914;0.578791;0.583984;0.585012;0.586294;0.581410;0.582863;0.582432;0.579639;0.584640;0.587059;0.589512;0.591612;0.591293;0.591918;0.596172;0.594312;0.599952;0.603195;0.606830;0.608665;0.610269;0.616203;0.612249;0.611805;0.621274;0.630083;0.623141;0.635986;0.631791;0.635066;0.639696;0.643215;0.647138;0.649074;0.657464;0.663414;0.659464;0.666298;0.676014;0.677294;0.679807;0.685084;0.687499;0.693108;0.694074;0.702013;0.705502;0.713851;0.713634;0.714435;0.718210;0.728795;0.729643;0.735209;0.737241;0.740411;0.744491;0.752251;0.751698;0.756630;0.757132;0.761888;0.766140;0.767452;0.766536;0.771832;0.776559;0.777130;0.776263;0.773740;0.780471;0.775723;0.783578;0.776022;0.781417;0.777895;0.778253;0.775907;0.777916;0.771080;0.769715;0.766710;0.764099;0.761884;0.762827;0.758712;0.751894;0.750206;0.745628;0.735103;0.731106;0.724410;0.724240;0.716725;0.709599;0.701888;0.696840;0.687986;0.683842;0.680030;0.671630;0.668018;0.662013;0.653282;0.652573;0.638709;0.630852;0.629670;0.623358;0.619634;0.608979;0.606347;0.597800;0.595795;0.584126;0.585882;0.580720;0.572054;0.566822
0.509804;0.504823;0.505899;0.506223;0.506213;0.509007;0.506002;0.512515;0.517181;0.507433;0.507467;0.513710;0.516078;0.513328;0.516455;0.515751;0.518927;0.516882;0.520588;0.520264;0.518325;0.520980;0.517827;0.522980;0.524841;0.525256;0.525556;0.520679;0.522755;0.526721;0.528041;0.525707;0.525122;0.527044;0.523704;0.530809;0.532679;0.531360;0.531053;0.534598;0.534528;0.536026;0.539456;0.535351;0.538115;0.536465;0.538073;0.541172;0.539998;0.541404;0.540975;0.544557;0.547691;0.550986;0.548571;0.545100;0.546018;0.551597;0.551773;0.552743;0.557366;0.558245;0.557376;0.562843;0.562297;0.567625;0.563645;0.564587;0.567788;0.573453;0.580318;0.579457;0.582413;0.581326;0.584530;0.587724;0.593287;0.600109;0.600637;0.606048;0.610577;0.608443;0.616179;0.626208;0.622795;0.635874;0.637339;0.640886;0.648099;0.653044;0.657864;0.667776;0.664131;0.670883;0.681868;0.689886;0.693523;0.700076;0.701019;0.703535;0.718964;0.724901;0.725795;0.730100;0.740531;0.741306;0.747435;0.752263;0.761995;0.765820;0.765097;0.767575;0.781935;0.785888;0.784672;0.789221;0.794382;0.802147;0.797287;0.805562;0.803214;0.813858;0.814741;0.812203;0.817535;0.818493;0.818014;0.818756;0.821596;0.822134;0.825187;0.822164;0.824889;0.831344;0.828377;0.825748;0.820182;0.826331;0.820591;0.820005;0.821519;0.814230;0.815920;0.820499;0.813056;0.812275;0.808074;0.805916;0.806736;0.795523;0.797924;0.794899;0.792424;0.792527;0.786357;0.781558;0.778937;0.772808;0.771378;0.766860;0.759748;0.756910;0.752682;0.749478;0.739636;0.735419;0.734018;0.726384;0.722214;0.714888;0.710964;0.705337;0.703689;0.687805;0.685598;0.682992;0.672529;0.667739;0.661381;0.655113;0.652807;0.646069;0.640129;0.634860;0.626396;0.620654;0.620090;0.611805;0.607122;0.601125;0.595380;0.580316;0.583196;0.581257;0.572670;0.569921;0.567710;0.561114;0.556572;0.555127
0.521424;0.521993;0.523781;0.525187;0.532571;0.527527;0.530277;0.533066;0.530230;0.535901;0.535787;0.544352;0.537278;0.542571;0.545581;0.542157;0.549819;0.544651;0.549069;0.556777;0.549982;0.559288;0.557560;0.558795;0.562100;0.567477;0.565781;0.565587;0.570472;0.565181;0.569149;0.575619;0.569846;0.575232;0.576483;0.575649;0.577516;0.575818;0.575357;0.581126;0.582966;0.580201;0.582796;0.582153;0.577278;0.575870;0.581941;0.582127;0.582746;0.582882;0.582055;0.578778;0.580202;0.577544;0.581102;0.579429;0.580550;0.581496;0.577518;0.578353;0.580959;0.580515;0.578957;0.581140;0.583728;0.586794;0.586653;0.583364;0.584543;0.588526;0.593504;0.590889;0.599532;0.600264;0.602198;0.607605;0.612312;0.612461;0.617434;0.621116;0.628523;0.627983;0.633798;0.636226;0.648816;0.648475;0.653383;0.661697;0.669221;0.678179;0.681833;0.689844;0.693486;0.707036;0.710524;0.717758;0.721901;0.732445;0.735607;0.747759;0.754398;0.754926;0.763298;0.774839;0.777792;0.784390;0.794695;0.802923;0.804169;0.810618;0.819007;0.828356;0.827864;0.827374;0.840443;0.842083;0.838740;0.848879;0.846748;0.849376;0.849293;0.852106;0.851566;0.851887;0.850320;0.853191;0.851506;0.852613;0.850792;0.846684;0.844309;0.836110;0.836977;0.837269;0.830750;0.829501;0.823347;0.820099;0.815226;0.807994;0.804238;0.798339;0.796775;0.787129;0.782163;0.778952;0.772036;0.764258;0.760229;0.750022;0.746814;0.743428;0.735264;0.730592;0.723762;0.716290;0.714608;0.706972;0.706118;0.699586;0.688695;0.684504;0.678326;0.677246;0.666677;0.663504;0.663279;0.650162;0.644483;0.641773;0.638752;0.635783;0.633772;0.626114;0.622175;0.612171;0.614831;0.610428;0.606369;0.599151;0.593854;0.587563;0.587088;0.588032;0.577787;0.575314;0.572364;0.570102;0.570058;0.567047;0.558860;0.555282;0.558091;0.551166;0.551811;0.542958;0.546658;0.544557;0.541214;0.538595
0.508070;0.502885;0.509447;0.509405;0.509107;0.507843;0.506228;0.507853;0.509636;0.514876;0.514273;0.514305;0.513144;0.519221;0.515447;0.520928;0.522805;0.525805;0.522236;0.523408;0.526902;0.528283;0.527068;0.527776;0.532581;0.529680;0.533623;0.530669;0.537359;0.543117;0.541196;0.548328;0.545735;0.552939;0.548450;0.547664;0.552143;0.554652;0.558813;0.563820;0.565260;0.570251;0.570085;0.571150;0.573491;0.578743;0.582774;0.586910;0.587529;0.596255;0.592756;0.595927;0.601434;0.605716;0.607157;0.617564;0.611240;0.614950;0.619837;0.623976;0.626227;0.628783;0.632793;0.637069;0.640411;0.644667;0.642290;0.649988;0.649302;0.651464;0.652575;0.657335;0.655931;0.661090;0.657049;0.660709;0.661623;0.662420;0.661955;0.664415;0.667517;0.662421;0.659951;0.665586;0.662427;0.663395;0.658880;0.659510;0.661287;0.659738;0.660449;0.659178;0.656692;0.658711;0.654633;0.647035;0.646046;0.642540;0.645257;0.641674;0.642195;0.639906;0.642071;0.641357;0.638759;0.637013;0.637281;0.636745;0.634247;0.629454;0.636628;0.633157;0.640439;0.634878;0.638695;0.639759;0.640825;0.646148;0.645989;0.647920;0.646021;0.657712;0.652209;0.661639;0.662505;0.666635;0.677511;0.676516;0.681413;0.684803;0.692451;0.697897;0.705696;0.710655;0.716371;0.722729;0.727812;0.734731;0.739417;0.748088;0.752707;0.757813;0.762051;0.766280;0.773324;0.777083;0.781379;0.787379;0.791077;0.796461;0.798836;0.802797;0.803737;0.810766;0.812013;0.807447;0.809662;0.818093;0.809189;0.816942;0.812892;0.810876;0.814473;0.813152;0.808805;0.805970;0.801080;0.798121;0.792312;0.791675;0.781133;0.775263;0.770866;0.765549;0.760728;0.757564;0.747504;0.742620;0.732253;0.722642;0.715535;0.707158;0.700628;0.695389;0.687703;0.680720;0.676353;0.665606;0.659333;0.650154;0.645730;0.636940;0.623096;0.625699;0.615837;0.612486;0.607494;0.596652;0.594586;0.583878
0.529305;0.529171;0.528476;0.534306;0.534712;0.542188;0.542095;0.544851;0.540333;0.548162;0.553154;0.553685;0.557014;0.562446;0.566044;0.568936;0.570717;0.574613;0.582638;0.581567;0.590656;0.590075;0.591768;0.597218;0.601394;0.607635;0.613031;0.616298;0.619819;0.628048;0.633684;0.642380;0.640014;0.646628;0.653210;0.655672;0.662617;0.670555;0.678311;0.682333;0.687462;0.695660;0.703026;0.707185;0.715263;0.717795;0.728472;0.728624;0.740434;0.746669;0.747631;0.757903;0.763614;0.772780;0.776020;0.784772;0.787565;0.791391;0.803606;0.804846;0.806091;0.817766;0.824947;0.830020;0.833713;0.839348;0.842663;0.846754;0.855097;0.853982;0.858413;0.860152;0.866493;0.864803;0.866765;0.866107;0.868729;0.871283;0.864154;0.870175;0.863245;0.863573;0.859327;0.864375;0.854344;0.858909;0.849343;0.846795;0.841798;0.841670;0.834589;0.825345;0.822813;0.818280;0.812170;0.804030;0.792667;0.791873;0.782496;0.773833;0.766069;0.761004;0.749289;0.743193;0.737923;0.732111;0.721012;0.713814;0.705431;0.702355;0.696034;0.688881;0.682261;0.679716;0.671368;0.667942;0.656204;0.652800;0.644926;0.641793;0.634643;0.631214;0.624593;0.623843;0.614085;0.618181;0.607706;0.607067;0.603498;0.600703;0.595790;0.594719;0.592619;0.591724;0.586738;0.591486;0.582485;0.582283;0.584115;0.583240;0.577730;0.575206;0.569806;0.575886;0.574361;0.569772;0.568546;0.572525;0.570620;0.566478;0.567715;0.566278;0.569075;0.566073;0.564517;0.568754;0.567186;0.567692;0.567851;0.562852;0.558681;0.559840;0.557227;0.559407;0.558187;0.556328;0.553964;0.555490;0.550942;0.555100;0.550597;0.551458;0.550728;0.547319;0.540223;0.544491;0.543077;0.539746;0.539810;0.543110;0.542166;0.539279;0.536065;0.537059;0.536077;0.536551;0.530950;0.531055;0.526730;0.533755;0.528889;0.528229;0.521668;0.525203;0.530800;0.526917;0.522731;0.515744;0.519222;0.521202
0.548427;0.547291;0.555902;0.551577;0.557489;0.562232;0.564954;0.563188;0.565389;0.577389;0.583065;0.585358;0.587345;0.589769;0.598770;0.603570;0.607773;0.609729;0.616456;0.615635;0.623141;0.629378;0.631949;0.633516;0.640042;0.648372;0.649655;0.649460;0.658251;0.663181;0.669005;0.670618;0.674594;0.675827;0.677023;0.680370;0.687751;0.686867;0.690088;0.691368;0.694553;0.697138;0.700866;0.701457;0.702674;0.702377;0.698071;0.705535;0.706083;0.707858;0.704832;0.710490;0.709475;0.713002;0.711160;0.711277;0.714350;0.712407;0.712089;0.710769;0.706709;0.714264;0.709861;0.706403;0.711991;0.713485;0.711111;0.709439;0.714468;0.707448;0.708353;0.711704;0.709932;0.714858;0.713743;0.716235;0.712960;0.715234;0.712915;0.715041;0.716658;0.718862;0.720860;0.717250;0.716298;0.718320;0.718520;0.719894;0.721758;0.728497;0.722262;0.726902;0.730837;0.723983;0.733585;0.731064;0.728727;0.737399;0.733333;0.736360;0.739713;0.734449;0.742626;0.744973;0.743319;0.739265;0.739988;0.744802;0.741694;0.741255;0.742329;0.744091;0.742402;0.746316;0.740636;0.734483;0.736522;0.739726;0.738066;0.738448;0.735444;0.737521;0.734187;0.727815;0.724172;0.722617;0.719621;0.713461;0.715898;0.710105;0.708334;0.699200;0.693037;0.691543;0.686446;0.684466;0.678799;0.673253;0.668041;0.666262;0.661645;0.651593;0.652822;0.647012;0.641096;0.634131;0.632421;0.629439;0.622261;0.619525;0.613035;0.607031;0.602524;0.599025;0.595118;0.593725;0.585025;0.581945;0.579252;0.581594;0.574134;0.565783;0.565934;0.563021;0.560590;0.551757;0.553736;0.550274;0.549724;0.541700;0.539395;0.539333;0.535797;0.534665;0.529566;0.532268;0.525491;0.523316;0.524057;0.523863;0.521619;0.519940;0.517362;0.511901;0.515098;0.517999;0.513562;0.513709;0.513966;0.511554;0.509182;0.505709;0.504710;0.508192;0.509903;0.504072;0.501122;0.501031;0.505440;0.499356
0.509611;0.512410;0.512985;0.511026;0.510041;0.513958;0.510262;0.516162;0.515344;0.511577;0.517613;0.517777;0.516614;0.518606;0.521779;0.519545;0.521289;0.529877;0.525440;0.530119;0.536986;0.538568;0.537088;0.540941;0.540779;0.544803;0.551060;0.554932;0.552632;0.563939;0.567553;0.564543;0.568225;0.573819;0.579379;0.590293;0.587560;0.597794;0.593415;0.601102;0.608677;0.614568;0.619019;0.626809;0.632762;0.634204;0.642001;0.651807;0.656867;0.664869;0.670714;0.677672;0.682917;0.694971;0.698176;0.711311;0.715252;0.720158;0.726125;0.737452;0.741273;0.754112;0.758819;0.768215;0.772378;0.782802;0.787850;0.792543;0.798300;0.803374;0.812549;0.816247;0.823128;0.822399;0.831528;0.833281;0.838300;0.834927;0.843638;0.844508;0.847072;0.852080;0.848579;0.852756;0.858551;0.852475;0.851907;0.850987;0.854163;0.843064;0.847615;0.851155;0.852064;0.842398;0.838177;0.839124;0.839351;0.831320;0.830002;0.824383;0.827073;0.821790;0.814626;0.807863;0.804321;0.802212;0.794987;0.792366;0.789500;0.780910;0.778101;0.778344;0.769779;0.761578;0.757800;0.756280;0.748367;0.747286;0.742186;0.731386;0.728924;0.723667;0.721106;0.715824;0.709131;0.703727;0.693653;0.691057;0.691219;0.681843;0.683080;0.675208;0.668188;0.665521;0.662800;0.660785;0.652424;0.648190;0.641495;0.638284;0.636330;0.632598;0.625398;0.616069;0.618741;0.614393;0.605363;0.607318;0.600154;0.595467;0.594175;0.584434;0.585900;0.584551;0.574565;0.575889;0.570843;0.570626;0.568849;0.561953;0.557693;0.560217;0.548376;0.552184;0.545459;0.546764;0.542777;0.543818;0.539905;0.538252;0.536939;0.532492;0.531090;0.532167;0.523544;0.526923;0.524557;0.519362;0.522906;0.520169;0.514986;0.520031;0.515330;0.513179;0.515050;0.516779;0.509767;0.510014;0.509675;0.506617;0.505029;0.501847;0.508274;0.501743;0.501228;0.499566;0.500207;0.498246;0.499876;0.499619
0.582916;0.592258;0.597750;0.602907;0.609150;0.613079;0.625976;0.625331;0.633067;0.648680;0.649650;0.657816;0.667069;0.671445;0.680957;0.688191;0.699271;0.702468;0.715031;0.723564;0.727287;0.737426;0.744493;0.751977;0.762102;0.770348;0.778342;0.780344;0.789605;0.795324;0.804357;0.810740;0.818458;0.820945;0.828727;0.837891;0.832680;0.843863;0.844916;0.846164;0.854034;0.845991;0.854154;0.854968;0.855402;0.860144;0.860047;0.862173;0.863129;0.861949;0.862206;0.863709;0.860551;0.865834;0.856744;0.856608;0.851094;0.856768;0.845871;0.847988;0.844490;0.847634;0.841756;0.835164;0.834679;0.828090;0.821142;0.820456;0.817314;0.807181;0.811427;0.804678;0.796705;0.790913;0.789840;0.781623;0.779429;0.772658;0.767651;0.763168;0.759512;0.755720;0.746878;0.740243;0.739311;0.734134;0.724927;0.718928;0.716018;0.711608;0.708900;0.701814;0.693645;0.688250;0.687038;0.683131;0.675545;0.674344;0.662907;0.657309;0.655057;0.647285;0.638768;0.633635;0.628003;0.623877;0.621154;0.617058;0.611240;0.604173;0.606852;0.598951;0.593077;0.591601;0.585674;0.585926;0.574709;0.573369;0.569884;0.568850;0.565172;0.562045;0.556217;0.557320;0.548767;0.550210;0.545694;0.541388;0.541617;0.539953;0.537084;0.533275;0.529759;0.529353;0.532558;0.526495;0.526410;0.520442;0.519422;0.523521;0.522145;0.521657;0.518508;0.515765;0.513220;0.517889;0.517569;0.509959;0.512181;0.507367;0.514503;0.505900;0.510713;0.512401;0.505009;0.505079;0.504510;0.505548;0.504582;0.508951;0.503376;0.511526;0.501311;0.499556;0.504302;0.504580;0.508352;0.502483;0.504568;0.497164;0.500473;0.499914;0.500066;0.500734;0.497417;0.499028;0.496438;0.497708;0.500095;0.500999;0.494846;0.499386;0.501425;0.495971;0.493332;0.498621;0.498288;0.497306;0.497108;0.495350;0.496422;0.493971;0.496508;0.496121;0.496321;0.491063;0.493982;0.495877;0.494759;0.497735
0.513954;0.516317;0.517022;0.520144;0.514998;0.518128;0.518405;0.522895;0.528684;0.526997;0.526425;0.526476;0.526284;0.531218;0.532134;0.531966;0.533092;0.537803;0.542260;0.544039;0.538443;0.542794;0.543895;0.547997;0.553695;0.551941;0.554900;0.562483;0.557872;0.559282;0.560985;0.568707;0.564485;0.567695;0.573637;0.574011;0.578488;0.578922;0.581701;0.584729;0.582034;0.587085;0.587577;0.588413;0.593387;0.595662;0.598980;0.598951;0.604182;0.605182;0.604511;0.611104;0.617185;0.614492;0.620372;0.619190;0.618735;0.625983;0.626751;0.630247;0.632108;0.631508;0.639267;0.637467;0.646050;0.644155;0.645927;0.649260;0.650605;0.651663;0.660868;0.659154;0.660007;0.669262;0.668024;0.672586;0.672614;0.675769;0.676839;0.681390;0.680892;0.687679;0.685166;0.692237;0.693958;0.695766;0.696455;0.697006;0.699802;0.702138;0.705157;0.714397;0.713788;0.710406;0.714281;0.719872;0.722342;0.721412;0.725666;0.727562;0.730811;0.730775;0.732241;0.740298;0.736759;0.739728;0.740407;0.743689;0.742682;0.744772;0.743508;0.745672;0.749450;0.752523;0.750136;0.756389;0.754927;0.756248;0.757024;0.759816;0.754852;0.756902;0.756355;0.761238;0.762573;0.758581;0.763044;0.756687;0.756995;0.753861;0.755405;0.757317;0.756897;0.755153;0.750946;0.751234;0.756974;0.746614;0.753508;0.752113;0.749121;0.743570;0.739290;0.738570;0.742285;0.739433;0.733552;0.730528;0.733285;0.729166;0.726951;0.728411;0.723072;0.720506;0.716333;0.717940;0.709985;0.707662;0.699772;0.701744;0.695210;0.696272;0.688271;0.686176;0.681710;0.677008;0.677929;0.671369;0.668000;0.666469;0.661248;0.657078;0.650253;0.645981;0.640526;0.634324;0.633854;0.627982;0.620132;0.618488;0.612736;0.610835;0.607253;0.601274;0.595566;0.594350;0.586361;0.583120;0.580308;0.573567;0.570796;0.568691;0.567903;0.560581;0.560761;0.556174;0.550387;0.546384;0.548088;0.543988
0.521813;0.515834;0.520477;0.521962;0.520577;0.524001;0.526785;0.530596;0.529874;0.528241;0.531995;0.533075;0.532730;0.539594;0.538349;0.541005;0.545713;0.544635;0.546256;0.551977;0.551847;0.556583;0.561557;0.562489;0.563040;0.568439;0.569428;0.571898;0.571908;0.576625;0.583339;0.587586;0.588808;0.587465;0.589790;0.596338;0.597945;0.594054;0.607282;0.604883;0.608811;0.608976;0.616345;0.620607;0.622834;0.629126;0.635380;0.633075;0.639907;0.641050;0.645560;0.650159;0.654506;0.658582;0.662771;0.663558;0.666307;0.672458;0.674930;0.681284;0.680066;0.684995;0.693594;0.692278;0.696394;0.701887;0.705484;0.708036;0.711063;0.715864;0.715951;0.717751;0.719179;0.719343;0.721763;0.723256;0.727410;0.732065;0.729455;0.737869;0.735243;0.738053;0.743472;0.739337;0.738770;0.743305;0.736653;0.742182;0.742183;0.739678;0.742116;0.740508;0.738938;0.742617;0.738759;0.739504;0.737725;0.733776;0.737643;0.735893;0.726798;0.733867;0.732793;0.731170;0.732061;0.730453;0.725862;0.724793;0.719916;0.722278;0.720710;0.717136;0.715441;0.716306;0.717595;0.715937;0.711201;0.715620;0.718603;0.713645;0.716195;0.711914;0.713048;0.710851;0.713028;0.707796;0.709326;0.707011;0.709070;0.711144;0.707002;0.706192;0.709793;0.705753;0.701182;0.706025;0.706345;0.702541;0.705236;0.702454;0.697927;0.703240;0.701542;0.695858;0.705840;0.699819;0.697520;0.699897;0.696242;0.693033;0.696627;0.691414;0.688214;0.689638;0.685431;0.683689;0.676624;0.679982;0.682062;0.675138;0.675136;0.672250;0.674903;0.670956;0.670972;0.668011;0.661828;0.656115;0.657420;0.650550;0.639757;0.643486;0.638905;0.635543;0.627832;0.631147;0.623480;0.620111;0.616372;0.610497;0.605752;0.604784;0.599419;0.598761;0.588735;0.588680;0.583711;0.583341;0.577481;0.580298;0.574119;0.570203;0.565332;0.563597;0.560143;0.555555;0.548517;0.551903;0.544160;0.542542
0.530921;0.534406;0.538920;0.538259;0.541705;0.541558;0.545841;0.550556;0.553062;0.559831;0.561924;0.560752;0.567000;0.569226;0.570197;0.574176;0.573328;0.579858;0.588879;0.590810;0.598381;0.594736;0.601470;0.605387;0.614531;0.614868;0.619155;0.620988;0.623028;0.628179;0.631119;0.638252;0.639102;0.645267;0.647693;0.651742;0.653439;0.661368;0.658440;0.665969;0.669983;0.673598;0.674538;0.680012;0.682607;0.683424;0.686711;0.691962;0.696982;0.699130;0.700712;0.700728;0.702388;0.707128;0.708997;0.715158;0.710515;0.715869;0.718560;0.717195;0.723050;0.724500;0.723098;0.728129;0.729296;0.725812;0.730441;0.733753;0.728364;0.728888;0.732733;0.734184;0.735607;0.734113;0.727912;0.731341;0.728577;0.729747;0.730367;0.722384;0.721782;0.722808;0.724017;0.716501;0.715879;0.716494;0.712812;0.708321;0.705856;0.704198;0.692528;0.693741;0.689173;0.683906;0.678911;0.678473;0.672826;0.673049;0.665060;0.662938;0.657283;0.661643;0.652444;0.647314;0.645733;0.642136;0.637183;0.635235;0.635488;0.634709;0.627815;0.625344;0.622173;0.621995;0.623887;0.616249;0.617654;0.615773;0.619711;0.617024;0.616250;0.619101;0.616266;0.618324;0.616875;0.618005;0.617850;0.621868;0.621875;0.623614;0.625858;0.628875;0.631623;0.632399;0.637077;0.640199;0.639525;0.643522;0.645560;0.649309;0.653447;0.657995;0.658845;0.661947;0.665351;0.666267;0.669337;0.671289;0.675970;0.675529;0.678064;0.681998;0.678669;0.685146;0.688157;0.690568;0.685528;0.687689;0.684709;0.684460;0.676143;0.681912;0.681459;0.679805;0.680343;0.679779;0.675139;0.677472;0.674146;0.667700;0.669702;0.664648;0.654294;0.655654;0.651793;0.648816;0.645425;0.641684;0.635953;0.632336;0.626876;0.622243;0.617209;0.612488;0.609105;0.603742;0.600607;0.592854;0.586982;0.583181;0.583634;0.577578;0.577386;0.569884;0.561544;0.560532;0.561489;0.559410;0.550941;0.550323
0.515218;0.514380;0.514971;0.517213;0.520650;0.521170;0.517352;0.525265;0.525528;0.529181;0.525814;0.528982;0.531443;0.532842;0.532682;0.535778;0.537781;0.536728;0.544296;0.544860;0.546412;0.553128;0.550472;0.553957;0.555370;0.557789;0.564919;0.562777;0.572117;0.570937;0.578265;0.581926;0.583623;0.586444;0.587389;0.599743;0.597845;0.603314;0.609547;0.612585;0.617368;0.621854;0.629353;0.637444;0.637509;0.646663;0.650821;0.653153;0.660857;0.669823;0.666453;0.670844;0.683075;0.686366;0.696380;0.698612;0.706459;0.712403;0.716510;0.724332;0.729677;0.733657;0.740121;0.746326;0.751502;0.754403;0.755702;0.764111;0.769352;0.767277;0.773123;0.778536;0.779009;0.780480;0.787636;0.784338;0.794443;0.792068;0.789301;0.791874;0.788999;0.792809;0.787468;0.791000;0.786500;0.789186;0.785805;0.778639;0.781902;0.780750;0.770292;0.768678;0.765732;0.762233;0.762522;0.761164;0.757116;0.752866;0.744063;0.741606;0.739476;0.731627;0.724093;0.720152;0.716049;0.714653;0.708512;0.704318;0.697269;0.696823;0.694594;0.686344;0.684008;0.678260;0.676950;0.675604;0.666597;0.671017;0.664456;0.662988;0.666126;0.657142;0.654854;0.655392;0.650175;0.658836;0.659896;0.653837;0.651754;0.652238;0.654361;0.649998;0.653688;0.659121;0.650253;0.649981;0.650462;0.654265;0.656295;0.656025;0.656712;0.660663;0.656555;0.658787;0.663012;0.664679;0.666689;0.658711;0.667332;0.666042;0.669875;0.665271;0.665667;0.664574;0.667221;0.664139;0.664824;0.667203;0.667185;0.667648;0.663021;0.662772;0.658171;0.654530;0.656881;0.657701;0.652532;0.646538;0.649305;0.646951;0.639638;0.642312;0.635369;0.629395;0.631621;0.628208;0.625427;0.618324;0.618814;0.613486;0.608301;0.605724;0.597808;0.602351;0.591842;0.597314;0.587937;0.583781;0.577834;0.579141;0.568601;0.570491;0.569278;0.564910;0.557114;0.553979;0.560193;0.553756;0.547934;0.547104
0.580688;0.590964;0.593335;0.602658;0.606941;0.611706;0.618319;0.621407;0.634208;0.639347;0.646597;0.658349;0.657399;0.666989;0.674946;0.683737;0.689096;0.703550;0.709238;0.711587;0.724522;0.731293;0.738582;0.744383;0.749199;0.759922;0.765714;0.772147;0.773092;0.788555;0.793756;0.794879;0.798076;0.803378;0.804343;0.806481;0.809097;0.818560;0.815188;0.819365;0.824416;0.821910;0.824653;0.825166;0.825970;0.818408;0.827495;0.821922;0.817552;0.822708;0.822655;0.817142;0.814388;0.807670;0.803290;0.795357;0.798032;0.794269;0.791678;0.790604;0.783044;0.775469;0.776681;0.766009;0.766007;0.757656;0.753786;0.752139;0.748685;0.742222;0.733705;0.732722;0.726870;0.721726;0.716162;0.716134;0.711044;0.709413;0.703465;0.697517;0.694416;0.694753;0.690959;0.682830;0.681634;0.678251;0.682251;0.674425;0.674301;0.670858;0.674132;0.673898;0.670778;0.667003;0.667117;0.658942;0.663274;0.663599;0.662606;0.658527;0.656097;0.658038;0.657613;0.656573;0.654079;0.657215;0.655470;0.655905;0.654396;0.653911;0.655336;0.645005;0.645662;0.652883;0.644732;0.645593;0.641399;0.640073;0.645289;0.641798;0.640922;0.639613;0.641036;0.633343;0.635696;0.628927;0.624969;0.624690;0.622671;0.621831;0.619866;0.617774;0.617957;0.613747;0.608706;0.607578;0.603661;0.601757;0.602776;0.595227;0.591176;0.591920;0.584539;0.580378;0.583487;0.576964;0.576591;0.570513;0.572293;0.564837;0.566708;0.561620;0.560404;0.554738;0.556812;0.550442;0.546989;0.543310;0.550631;0.541400;0.537846;0.535231;0.537922;0.536190;0.535157;0.538018;0.531158;0.527139;0.525688;0.523076;0.522782;0.525321;0.522313;0.515596;0.521377;0.521714;0.517804;0.518273;0.515073;0.518006;0.517237;0.511962;0.517958;0.515077;0.512445;0.512408;0.510848;0.516740;0.512974;0.505666;0.510663;0.508246;0.512211;0.505422;0.507960;0.505452;0.512128;0.507517;0.506857;0.503983
0.528472;0.525007;0.530298;0.536771;0.534774;0.537917;0.540798;0.541869;0.541956;0.547328;0.547451;0.556356;0.554881;0.557892;0.554761;0.565681;0.564608;0.570323;0.576645;0.572195;0.577556;0.582441;0.583795;0.589427;0.587954;0.594743;0.595533;0.599212;0.607901;0.607278;0.612933;0.616952;0.623507;0.622362;0.624972;0.633475;0.635543;0.639203;0.639537;0.650248;0.652960;0.654655;0.663998;0.662335;0.663732;0.672732;0.679352;0.679835;0.682241;0.681388;0.687957;0.692115;0.699147;0.699071;0.703283;0.706444;0.713134;0.715197;0.716512;0.720572;0.726897;0.729201;0.730659;0.729258;0.733513;0.742084;0.738679;0.742608;0.742363;0.744713;0.744947;0.747330;0.747030;0.755746;0.750646;0.756105;0.751697;0.748839;0.752660;0.750324;0.753909;0.750584;0.751287;0.746137;0.743827;0.745647;0.739626;0.742155;0.735815;0.730042;0.729759;0.734508;0.722516;0.722492;0.718699;0.713628;0.714988;0.703599;0.706655;0.698883;0.697829;0.696215;0.688118;0.688773;0.682584;0.682994;0.678585;0.674753;0.672250;0.669553;0.662963;0.663102;0.663373;0.655580;0.657750;0.654911;0.652992;0.644771;0.651166;0.650016;0.642514;0.646729;0.643910;0.648173;0.650500;0.649484;0.644522;0.647615;0.647591;0.646878;0.651220;0.652029;0.649523;0.649945;0.652803;0.659170;0.655697;0.656087;0.658351;0.664003;0.662972;0.663134;0.666046;0.673498;0.668623;0.675891;0.673412;0.671106;0.675432;0.675678;0.677059;0.674960;0.680704;0.680810;0.675971;0.675822;0.676808;0.680369;0.680868;0.680911;0.673835;0.671458;0.677403;0.674793;0.670057;0.669933;0.665621;0.666607;0.663010;0.664575;0.659321;0.659855;0.650480;0.650352;0.644781;0.640887;0.636045;0.626449;0.634049;0.620691;0.617919;0.622301;0.613859;0.613200;0.604526;0.598998;0.598788;0.590865;0.586252;0.584355;0.582239;0.578051;0.575212;0.576955;0.571270;0.568751;0.562440;0.561986;0.554896;0.554026
0.568708;0.572710;0.580224;0.579677;0.590140;0.588416;0.596601;0.604372;0.610342;0.619525;0.619926;0.625477;0.630494;0.633440;0.644079;0.651801;0.653966;0.663088;0.674087;0.676606;0.684354;0.688421;0.698381;0.701968;0.708793;0.717826;0.726927;0.725484;0.731064;0.737177;0.741673;0.748016;0.753019;0.760493;0.767014;0.765730;0.775152;0.778070;0.782479;0.782063;0.783865;0.791854;0.787189;0.798767;0.797398;0.795902;0.794647;0.797543;0.799845;0.803371;0.801335;0.799932;0.804334;0.800819;0.794578;0.801363;0.799180;0.802063;0.797320;0.796380;0.791978;0.792403;0.789533;0.784171;0.783057;0.781025;0.776450;0.776302;0.776577;0.775930;0.766621;0.764841;0.763298;0.756410;0.756863;0.751902;0.744733;0.742226;0.738852;0.734475;0.728986;0.729747;0.719592;0.718230;0.715284;0.706006;0.706404;0.700527;0.696846;0.692124;0.684564;0.673671;0.672001;0.669628;0.670509;0.662235;0.660518;0.654289;0.645505;0.643904;0.639647;0.635174;0.628257;0.621463;0.625544;0.613821;0.611887;0.609331;0.603715;0.602984;0.598185;0.596989;0.589920;0.595355;0.586780;0.589943;0.583148;0.579076;0.577494;0.579230;0.580981;0.574952;0.574868;0.572499;0.572514;0.567336;0.574022;0.573742;0.569869;0.570462;0.572642;0.574599;0.577356;0.571730;0.574325;0.574201;0.575127;0.582073;0.577377;0.575669;0.580246;0.583926;0.583187;0.586650;0.586789;0.587811;0.587449;0.593310;0.590950;0.594056;0.593003;0.596729;0.592458;0.602194;0.593004;0.596871;0.600083;0.598018;0.593714;0.598735;0.595482;0.594237;0.600012;0.595489;0.591026;0.592635;0.591809;0.593554;0.585993;0.593813;0.592355;0.586173;0.582639;0.579720;0.574993;0.575211;0.575134;0.571163;0.568533;0.569821;0.566640;0.567380;0.559172;0.561501;0.557361;0.554586;0.551222;0.551348;0.547263;0.551079;0.543035;0.541335;0.539622;0.540277;0.535599;0.534647;0.528416;0.533380;0.527733;0.529726
0.525335;0.530972;0.528601;0.532653;0.532168;0.542780;0.539611;0.546307;0.544540;0.546088;0.551129;0.554644;0.551854;0.562802;0.558940;0.564296;0.569078;0.568780;0.571158;0.572833;0.579852;0.583392;0.582112;0.584403;0.586750;0.588337;0.589465;0.595309;0.595484;0.597860;0.604941;0.603316;0.607892;0.614694;0.616303;0.621034;0.623549;0.623097;0.626989;0.623735;0.631809;0.630535;0.635541;0.633883;0.636694;0.637512;0.644766;0.642507;0.644831;0.645220;0.646499;0.655191;0.653577;0.655046;0.656357;0.662799;0.658762;0.661842;0.659965;0.662739;0.670523;0.667261;0.669761;0.669361;0.672159;0.669134;0.678338;0.675539;0.679232;0.679894;0.683309;0.686365;0.690512;0.690920;0.691141;0.696213;0.694545;0.700675;0.702801;0.704588;0.709150;0.711600;0.714426;0.711874;0.712111;0.721283;0.717237;0.723781;0.726229;0.733397;0.733146;0.732027;0.737503;0.741452;0.742861;0.748103;0.743301;0.752902;0.751456;0.757471;0.762219;0.761044;0.761232;0.765949;0.770394;0.769674;0.774287;0.773789;0.777664;0.774334;0.777931;0.780294;0.776288;0.777951;0.779833;0.778956;0.783150;0.780061;0.783431;0.782921;0.774456;0.773461;0.774710;0.778970;0.769904;0.762397;0.763737;0.766080;0.765134;0.756500;0.751020;0.751654;0.751984;0.748642;0.743721;0.738167;0.731784;0.732585;0.722533;0.719424;0.711385;0.715192;0.708394;0.696504;0.698739;0.691355;0.688217;0.683043;0.678750;0.673431;0.664177;0.663660;0.659503;0.658036;0.646037;0.642546;0.638740;0.635659;0.634263;0.627590;0.620958;0.623827;0.618932;0.612224;0.609265;0.607304;0.599004;0.596740;0.592805;0.589853;0.588692;0.580190;0.575904;0.576119;0.573120;0.569309;0.566700;0.561962;0.560206;0.557451;0.557210;0.554860;0.555951;0.547890;0.548547;0.540932;0.542034;0.538441;0.533594;0.533208;0.530151;0.532258;0.528966;0.532245;0.525279;0.525132;0.520817;0.524885;0.521430;0.520487
0.519993;0.519305;0.520527;0.524951;0.524058;0.525394;0.529087;0.530625;0.528414;0.535095;0.534369;0.537028;0.539302;0.541269;0.545301;0.544538;0.549594;0.547929;0.552358;0.553092;0.558949;0.561824;0.563295;0.570870;0.574487;0.573988;0.574771;0.583558;0.587479;0.589491;0.590857;0.593465;0.600782;0.604679;0.610409;0.612344;0.615145;0.626583;0.624294;0.628487;0.632303;0.642548;0.643044;0.644721;0.649642;0.656166;0.661678;0.665093;0.673492;0.679607;0.686166;0.687407;0.697961;0.702915;0.710798;0.711444;0.711087;0.723127;0.730112;0.733302;0.736813;0.748449;0.751787;0.752822;0.756517;0.762474;0.766836;0.777872;0.779286;0.784290;0.783055;0.790653;0.789424;0.796864;0.796574;0.805431;0.805025;0.807125;0.809731;0.813635;0.814580;0.815615;0.813369;0.815148;0.814919;0.817250;0.814714;0.817589;0.820533;0.818543;0.817805;0.812509;0.814557;0.815230;0.813247;0.808528;0.805054;0.802506;0.802135;0.800652;0.798163;0.794878;0.792845;0.784437;0.787805;0.785151;0.776282;0.779332;0.776191;0.770048;0.767749;0.761249;0.758142;0.757455;0.756623;0.748665;0.746113;0.741776;0.734578;0.736777;0.733964;0.728356;0.726696;0.718540;0.717154;0.710487;0.711025;0.705838;0.701074;0.697680;0.693846;0.684806;0.684962;0.681225;0.675628;0.672490;0.672652;0.662899;0.660013;0.654374;0.650988;0.647560;0.650994;0.645209;0.640521;0.634254;0.637495;0.629165;0.625442;0.617609;0.617544;0.615137;0.609021;0.608312;0.604860;0.603695;0.607747;0.599490;0.595218;0.587372;0.589116;0.586727;0.580839;0.580753;0.577916;0.580013;0.572179;0.576774;0.569416;0.569384;0.564504;0.565311;0.563164;0.557423;0.553107;0.557988;0.556447;0.553821;0.549128;0.553794;0.547207;0.542142;0.538462;0.540500;0.545168;0.534458;0.534320;0.532546;0.529354;0.533557;0.527387;0.528080;0.528115;0.523713;0.524220;0.526565;0.526083;0.521170;0.522045;0.519311
0.505540;0.506142;0.509338;0.506982;0.506059;0.505813;0.504951;0.501178;0.506332;0.504363;0.507603;0.506353;0.508786;0.507884;0.510422;0.507474;0.510147;0.508884;0.513232;0.514009;0.514207;0.514756;0.518037;0.517730;0.513001;0.515911;0.516959;0.514541;0.520291;0.521518;0.518057;0.518885;0.520647;0.522867;0.521281;0.520528;0.524326;0.527385;0.521390;0.522367;0.522530;0.521019;0.526356;0.526652;0.522496;0.524732;0.526731;0.531844;0.525069;0.528789;0.530490;0.533320;0.534507;0.530315;0.530804;0.538528;0.533497;0.537325;0.538767;0.536578;0.541895;0.541054;0.549418;0.551013;0.549235;0.548448;0.558053;0.557235;0.559308;0.567805;0.562835;0.571468;0.570914;0.569322;0.578220;0.579008;0.586406;0.591482;0.591862;0.600267;0.601744;0.606344;0.616475;0.619188;0.623738;0.631072;0.638596;0.643769;0.646264;0.652245;0.661332;0.663738;0.680836;0.681453;0.689760;0.694228;0.700791;0.709414;0.718377;0.724153;0.729323;0.741101;0.749005;0.745828;0.763161;0.766062;0.775956;0.775873;0.787372;0.793707;0.795645;0.802373;0.812266;0.813979;0.820807;0.823961;0.825458;0.829870;0.831166;0.839115;0.836754;0.844781;0.848246;0.843532;0.847372;0.850613;0.852196;0.853609;0.853636;0.853559;0.856003;0.852064;0.856173;0.852801;0.854333;0.849736;0.846557;0.846016;0.846670;0.841270;0.846394;0.843506;0.832748;0.829041;0.836570;0.827624;0.829773;0.821228;0.819261;0.814090;0.814589;0.807455;0.803079;0.800177;0.796599;0.791055;0.780506;0.779756;0.779995;0.772435;0.769007;0.765462;0.757517;0.750771;0.746563;0.744231;0.739603;0.731282;0.726878;0.719021;0.712449;0.711216;0.700279;0.694602;0.691941;0.685973;0.680454;0.671660;0.665186;0.665955;0.654867;0.652458;0.639199;0.641086;0.632248;0.623977;0.617148;0.614142;0.610294;0.604990;0.597510;0.595507;0.586288;0.584814;0.582557;0.579630;0.569097;0.570058;0.562409;0.562435
0.563356;0.567515;0.569985;0.578114;0.576962;0.585374;0.591764;0.597633;0.602619;0.605197;0.615318;0.617658;0.624821;0.635204;0.639977;0.643738;0.645913;0.656554;0.656558;0.662556;0.670003;0.677231;0.684295;0.692259;0.692660;0.703153;0.704443;0.712895;0.712702;0.720948;0.722697;0.730249;0.733216;0.736728;0.743869;0.742288;0.749506;0.748818;0.753172;0.754007;0.757037;0.759362;0.761740;0.759945;0.760434;0.765274;0.766147;0.760887;0.764726;0.761162;0.762224;0.761029;0.760521;0.757115;0.755370;0.755404;0.752357;0.749940;0.748867;0.748378;0.747641;0.739764;0.736312;0.733869;0.734854;0.731577;0.730234;0.727238;0.724849;0.718676;0.717975;0.715382;0.715439;0.710329;0.703959;0.706327;0.704231;0.706840;0.698183;0.697434;0.696894;0.691434;0.693334;0.690357;0.685094;0.691420;0.687780;0.680932;0.682303;0.678959;0.677265;0.679921;0.675707;0.673913;0.674026;0.674700;0.669376;0.672636;0.668113;0.667049;0.670702;0.670894;0.667428;0.667660;0.663131;0.668680;0.662436;0.664529;0.662186;0.661036;0.661011;0.662916;0.658256;0.659332;0.657521;0.658281;0.659701;0.659431;0.656554;0.658032;0.658614;0.655939;0.655296;0.658048;0.647906;0.651989;0.649841;0.650459;0.648134;0.646518;0.643164;0.647030;0.641939;0.639383;0.640226;0.635386;0.639065;0.634168;0.636821;0.633512;0.632374;0.627382;0.629282;0.627074;0.622561;0.624434;0.621961;0.619028;0.616138;0.613502;0.612996;0.611569;0.613969;0.608052;0.608154;0.605229;0.607693;0.603253;0.595952;0.598907;0.594729;0.594105;0.591360;0.587912;0.587474;0.583996;0.585877;0.583707;0.584116;0.578040;0.575131;0.575076;0.574811;0.568387;0.565268;0.565539;0.566903;0.558272;0.564998;0.559720;0.549829;0.554633;0.554702;0.544865;0.548003;0.541559;0.542186;0.541941;0.537350;0.535789;0.537596;0.529452;0.534336;0.531991;0.528692;0.531831;0.526035;0.522558;0.521897;0.524770
0.525242;0.528259;0.532130;0.533676;0.532916;0.536797;0.537121;0.543740;0.541283;0.542214;0.544578;0.550507;0.552721;0.552655;0.558878;0.565977;0.563152;0.564050;0.573625;0.576173;0.572118;0.579808;0.587404;0.584616;0.590180;0.593525;0.600270;0.598851;0.605014;0.602136;0.612263;0.614351;0.621413;0.616074;0.629537;0.627861;0.633597;0.636991;0.645257;0.648874;0.646943;0.653434;0.660742;0.663633;0.661131;0.667896;0.673804;0.678531;0.676278;0.681191;0.685932;0.687454;0.691212;0.699125;0.701080;0.703168;0.704225;0.710884;0.714200;0.716899;0.720243;0.724824;0.728991;0.729871;0.733937;0.735533;0.733948;0.739041;0.742079;0.745235;0.744392;0.742057;0.743312;0.749763;0.752962;0.746785;0.746225;0.748911;0.750650;0.751368;0.749732;0.752818;0.746871;0.746926;0.749839;0.741621;0.740003;0.744489;0.737114;0.737853;0.728861;0.732290;0.730676;0.728452;0.725430;0.721635;0.717029;0.712555;0.713832;0.703814;0.702481;0.700688;0.699884;0.690229;0.691132;0.685410;0.684810;0.683086;0.680815;0.679435;0.672049;0.671045;0.674963;0.669764;0.665946;0.665837;0.665459;0.664199;0.656266;0.661207;0.656615;0.661053;0.654584;0.658081;0.657550;0.657150;0.658618;0.657329;0.656978;0.654873;0.652328;0.656934;0.656747;0.659009;0.658686;0.663627;0.666444;0.663144;0.665579;0.663623;0.665744;0.670052;0.668640;0.675024;0.673545;0.679450;0.670831;0.674044;0.674362;0.676897;0.675248;0.677325;0.680426;0.680964;0.674561;0.673399;0.682607;0.674236;0.676653;0.672035;0.671968;0.670608;0.672595;0.666394;0.667152;0.665371;0.659306;0.665340;0.656084;0.654287;0.648199;0.646956;0.645046;0.644126;0.638465;0.636574;0.630911;0.626269;0.626162;0.620645;0.618574;0.614697;0.608328;0.605961;0.598485;0.594065;0.595430;0.591129;0.583666;0.584688;0.577959;0.580950;0.577402;0.565713;0.562620;0.558430;0.560033;0.555480;0.555155;0.555886
0.560701;0.568961;0.569338;0.572405;0.576163;0.585287;0.589655;0.591750;0.597324;0.601132;0.604782;0.610511;0.617120;0.621795;0.628559;0.635135;0.640125;0.647665;0.651610;0.657184;0.659998;0.669841;0.670614;0.678073;0.677231;0.688960;0.689951;0.696885;0.698373;0.700459;0.705560;0.710157;0.714244;0.720180;0.720558;0.720203;0.726394;0.725206;0.734665;0.728052;0.730718;0.729642;0.730154;0.732611;0.731746;0.736232;0.727036;0.732402;0.725788;0.722616;0.721014;0.718338;0.717830;0.719880;0.710649;0.710947;0.708197;0.706627;0.700821;0.695798;0.691863;0.690486;0.688911;0.677029;0.672194;0.675307;0.671883;0.662412;0.658987;0.663782;0.652012;0.646038;0.645223;0.639890;0.631947;0.635871;0.632132;0.628790;0.623454;0.620591;0.622409;0.615887;0.609153;0.612919;0.614124;0.615418;0.604875;0.601820;0.600240;0.598896;0.597049;0.597257;0.596694;0.592223;0.594397;0.591442;0.589400;0.591663;0.594971;0.592490;0.591590;0.589204;0.591253;0.591693;0.593327;0.590419;0.596921;0.593985;0.597072;0.597479;0.599340;0.599734;0.599202;0.601201;0.600744;0.607065;0.610198;0.607868;0.613744;0.618215;0.619803;0.619198;0.621926;0.621906;0.627916;0.631737;0.631408;0.641202;0.642213;0.644845;0.643906;0.652185;0.655321;0.653331;0.659437;0.665612;0.665584;0.673781;0.675213;0.679989;0.681235;0.688084;0.687077;0.689767;0.692940;0.694184;0.700398;0.698890;0.703157;0.705105;0.701360;0.705517;0.710730;0.709239;0.708379;0.711409;0.709544;0.711851;0.710568;0.709241;0.707480;0.705446;0.703078;0.703337;0.702565;0.698099;0.696434;0.692272;0.692220;0.689256;0.682871;0.680925;0.676501;0.672436;0.666656;0.662530;0.663110;0.652979;0.652165;0.644033;0.640167;0.636473;0.633939;0.623968;0.618523;0.621705;0.611918;0.611126;0.600323;0.594149;0.593137;0.591124;0.587164;0.582454;0.578313;0.576166;0.571895;0.565774;0.561331;0.558583
0.518385;0.514178;0.514079;0.520609;0.519921;0.519718;0.523012;0.525393;0.525413;0.527768;0.527127;0.532132;0.536189;0.533696;0.535698;0.535826;0.540800;0.543049;0.542642;0.546447;0.552311;0.548488;0.551351;0.553278;0.554022;0.559772;0.565877;0.565826;0.566689;0.567570;0.575956;0.574264;0.577465;0.580542;0.580569;0.584680;0.591377;0.588753;0.592965;0.599218;0.599307;0.602055;0.606549;0.613061;0.607571;0.620356;0.621261;0.622836;0.619940;0.627206;0.635992;0.638435;0.637376;0.641477;0.645754;0.650267;0.651797;0.652450;0.661010;0.662056;0.668908;0.664424;0.669523;0.674545;0.680987;0.679468;0.681678;0.684415;0.687714;0.693001;0.691283;0.692912;0.697182;0.696556;0.699768;0.704660;0.709602;0.706136;0.705845;0.707925;0.708111;0.713262;0.712930;0.717337;0.714592;0.715674;0.711927;0.714279;0.719566;0.719257;0.717639;0.714879;0.712557;0.716240;0.713283;0.713385;0.711756;0.711069;0.716637;0.712528;0.713787;0.711222;0.710179;0.712650;0.708759;0.703665;0.709066;0.710197;0.706679;0.706203;0.704042;0.704690;0.705151;0.701079;0.703023;0.704094;0.698919;0.704234;0.700863;0.702936;0.700461;0.701716;0.703688;0.698478;0.702192;0.705160;0.706867;0.703488;0.708640;0.705070;0.705067;0.711597;0.709053;0.705549;0.707936;0.711763;0.715918;0.710082;0.711216;0.708385;0.710797;0.712133;0.710514;0.716107;0.717687;0.713330;0.711335;0.715562;0.717430;0.716377;0.712421;0.709039;0.714739;0.711395;0.707426;0.708942;0.706580;0.700952;0.702215;0.700404;0.695357;0.692585;0.696780;0.691906;0.687726;0.688796;0.679102;0.677353;0.673341;0.669645;0.668885;0.662435;0.660842;0.657203;0.651079;0.646651;0.641437;0.642347;0.632978;0.630431;0.622475;0.623571;0.611880;0.609436;0.607810;0.604724;0.600935;0.594225;0.589645;0.584958;0.581732;0.576907;0.571486;0.568791;0.562929;0.557657;0.552325;0.553341;0.550820;0.546333
0.576210;0.585885;0.593124;0.596594;0.603778;0.608692;0.611233;0.620464;0.625298;0.634016;0.646222;0.645893;0.652146;0.662402;0.665918;0.673590;0.684149;0.695071;0.704240;0.711486;0.712161;0.723482;0.732928;0.741691;0.744140;0.749795;0.755539;0.766569;0.772537;0.779712;0.782041;0.793029;0.799645;0.800295;0.805437;0.811690;0.816389;0.820551;0.824403;0.831933;0.831483;0.834069;0.836688;0.836191;0.837022;0.840248;0.842258;0.843364;0.849542;0.842843;0.839670;0.838874;0.843397;0.839148;0.841828;0.837017;0.840196;0.834399;0.834469;0.834387;0.831742;0.827538;0.818927;0.819419;0.812920;0.811675;0.806237;0.803930;0.797476;0.801006;0.790907;0.787395;0.786376;0.779525;0.777280;0.769749;0.768333;0.763592;0.757865;0.752734;0.742650;0.744593;0.733909;0.735621;0.726171;0.718480;0.718149;0.707548;0.704485;0.700215;0.696352;0.689142;0.686211;0.680614;0.670431;0.666486;0.657140;0.660042;0.647395;0.646513;0.639060;0.632049;0.631731;0.630405;0.627252;0.612793;0.610795;0.604918;0.604626;0.594844;0.591520;0.590158;0.588085;0.583349;0.578564;0.575801;0.570662;0.568668;0.568235;0.570404;0.565590;0.560053;0.557039;0.558088;0.555990;0.551153;0.548980;0.554476;0.549288;0.549442;0.549475;0.546919;0.546105;0.547406;0.549505;0.544282;0.544692;0.545939;0.543561;0.548559;0.543984;0.546392;0.547660;0.546085;0.548505;0.551843;0.546145;0.548309;0.551757;0.550744;0.554495;0.545367;0.550387;0.547821;0.550286;0.545817;0.552581;0.552644;0.548298;0.546380;0.548480;0.549947;0.550264;0.551005;0.547186;0.550016;0.549083;0.546629;0.548541;0.543832;0.541754;0.542476;0.544408;0.542221;0.544265;0.540432;0.540905;0.535141;0.536253;0.532767;0.532642;0.532614;0.533585;0.528931;0.529305;0.530650;0.531646;0.525819;0.527271;0.521327;0.524542;0.518456;0.522032;0.520845;0.519390;0.516797;0.517760;0.513981;0.514160;0.514428
0.503466;0.508815;0.513548;0.513033;0.513600;0.510475;0.515222;0.514939;0.514742;0.520814;0.517289;0.518228;0.521673;0.525588;0.524028;0.530282;0.527995;0.532947;0.534555;0.533692;0.534922;0.540142;0.536890;0.537104;0.546158;0.551325;0.551338;0.554075;0.555262;0.559240;0.560630;0.563968;0.565515;0.578485;0.578138;0.580564;0.586744;0.590658;0.594247;0.599337;0.604770;0.610032;0.613567;0.619539;0.623726;0.624658;0.635169;0.644071;0.647170;0.658261;0.656622;0.663982;0.672915;0.677055;0.681294;0.689886;0.693402;0.701209;0.707565;0.714895;0.719288;0.726118;0.728013;0.740445;0.745594;0.751193;0.756666;0.758940;0.766623;0.765819;0.774983;0.773286;0.782360;0.785082;0.788638;0.790395;0.798745;0.796149;0.799300;0.802711;0.801969;0.800777;0.806258;0.804246;0.810250;0.806670;0.803781;0.802870;0.808711;0.800949;0.802310;0.798299;0.797630;0.791035;0.795041;0.787075;0.787518;0.784355;0.781770;0.775729;0.776800;0.768693;0.762067;0.766733;0.758589;0.763518;0.750232;0.754275;0.751231;0.741787;0.737834;0.731929;0.731123;0.729209;0.726958;0.723886;0.721041;0.716158;0.714823;0.707656;0.703993;0.706153;0.700268;0.697570;0.692870;0.695498;0.687804;0.685086;0.684182;0.686081;0.682703;0.681493;0.680339;0.673813;0.673496;0.671886;0.670480;0.669156;0.667594;0.669592;0.665029;0.666558;0.662987;0.662807;0.660690;0.655391;0.658250;0.653478;0.653493;0.653189;0.657195;0.653870;0.654865;0.643688;0.649183;0.642707;0.645296;0.639940;0.638278;0.635713;0.634175;0.632957;0.628506;0.628799;0.620521;0.620597;0.620130;0.618372;0.611403;0.615168;0.609202;0.607595;0.603109;0.600786;0.599197;0.594362;0.592301;0.586984;0.586426;0.582784;0.580292;0.576927;0.574804;0.573853;0.565959;0.564557;0.563451;0.560487;0.558439;0.557660;0.551659;0.552406;0.545569;0.548750;0.542370;0.535330;0.537599;0.533103;0.530511;0.534958
0.525405;0.521907;0.524643;0.530052;0.526943;0.526463;0.532087;0.535898;0.537030;0.537406;0.541926;0.541897;0.538539;0.549044;0.546270;0.551616;0.555245;0.554322;0.554810;0.561228;0.562515;0.563975;0.565475;0.566916;0.573439;0.569064;0.570892;0.580992;0.577470;0.581205;0.578463;0.584462;0.588143;0.589114;0.584042;0.589874;0.587594;0.588762;0.597482;0.592401;0.596137;0.602780;0.599463;0.601248;0.604786;0.605926;0.603806;0.606142;0.601261;0.607608;0.605713;0.611123;0.610226;0.617524;0.611777;0.616289;0.614889;0.616913;0.618404;0.617609;0.620279;0.622290;0.625779;0.624880;0.622913;0.624621;0.627675;0.636648;0.634524;0.636286;0.643524;0.646789;0.650219;0.649371;0.653102;0.658017;0.662759;0.665170;0.671746;0.674562;0.680027;0.684910;0.690108;0.692738;0.699462;0.712256;0.710232;0.718584;0.724052;0.727339;0.737130;0.740507;0.753771;0.760576;0.762958;0.768452;0.779862;0.782411;0.788901;0.801993;0.802942;0.810989;0.816470;0.821114;0.825331;0.829764;0.840837;0.844434;0.848691;0.852631;0.856298;0.861881;0.862403;0.866214;0.866369;0.867457;0.868602;0.868346;0.867106;0.866540;0.862821;0.867297;0.864292;0.862687;0.856162;0.854679;0.854835;0.846181;0.838181;0.838376;0.827688;0.826419;0.820233;0.815310;0.802883;0.793107;0.791448;0.779925;0.775303;0.769483;0.758796;0.755000;0.740688;0.729709;0.719758;0.714951;0.705179;0.696054;0.687126;0.679291;0.669396;0.663610;0.656233;0.647601;0.639114;0.627406;0.625811;0.621655;0.615692;0.607835;0.596964;0.594501;0.589324;0.584886;0.579098;0.578262;0.565328;0.561248;0.560717;0.551766;0.546370;0.545176;0.540809;0.546866;0.535916;0.527598;0.531302;0.530911;0.527286;0.526239;0.520246;0.522821;0.516443;0.515048;0.519020;0.514173;0.509506;0.508723;0.508011;0.509610;0.510273;0.500735;0.506313;0.505683;0.504673;0.502800;0.504093;0.503342;0.501722;0.497996
0.546089;0.556459;0.551674;0.552475;0.564883;0.564380;0.569364;0.577068;0.576360;0.582760;0.585910;0.590548;0.593906;0.599012;0.606865;0.607826;0.614645;0.616951;0.624080;0.625864;0.629914;0.636231;0.645987;0.645793;0.651715;0.659522;0.661978;0.667595;0.674082;0.679524;0.682999;0.685239;0.688962;0.700414;0.701015;0.713504;0.709774;0.715850;0.715439;0.726188;0.729289;0.736809;0.733027;0.743350;0.740384;0.747720;0.754225;0.752881;0.758466;0.761200;0.763656;0.766018;0.767893;0.770562;0.778645;0.778218;0.776103;0.782231;0.784978;0.783177;0.785605;0.786250;0.787451;0.786829;0.788995;0.791082;0.791188;0.791673;0.793689;0.797720;0.789909;0.791210;0.788933;0.786006;0.788433;0.785771;0.785011;0.784013;0.784691;0.777180;0.777951;0.776854;0.769731;0.770529;0.764568;0.761073;0.761140;0.756193;0.750941;0.750770;0.744293;0.734862;0.732376;0.732558;0.726703;0.719086;0.716126;0.712705;0.703636;0.701848;0.695849;0.688620;0.686254;0.681761;0.677077;0.674836;0.669386;0.660600;0.661820;0.651168;0.651575;0.645144;0.644902;0.633793;0.631105;0.630527;0.627212;0.624938;0.618133;0.618350;0.615436;0.616824;0.612421;0.606635;0.610389;0.604032;0.602940;0.606656;0.602430;0.602105;0.601026;0.602609;0.600362;0.605317;0.599915;0.597095;0.603252;0.600580;0.599118;0.603153;0.600008;0.601770;0.602724;0.602412;0.611577;0.602095;0.601856;0.603492;0.599975;0.601232;0.601816;0.603085;0.605075;0.605054;0.603426;0.605658;0.600513;0.605114;0.606147;0.603063;0.598479;0.600163;0.600817;0.600633;0.601596;0.598219;0.596502;0.592417;0.592692;0.597718;0.590242;0.588880;0.586530;0.585495;0.586983;0.582797;0.574889;0.577489;0.574504;0.576005;0.574789;0.573383;0.565774;0.564950;0.561303;0.562421;0.554673;0.553402;0.548260;0.548022;0.548064;0.547712;0.545780;0.540223;0.544714;0.535609;0.541813;0.538101;0.535536;0.530231
0.536027;0.544905;0.542797;0.543494;0.545468;0.550783;0.554906;0.558389;0.559986;0.567234;0.565933;0.567484;0.574475;0.576197;0.578735;0.586399;0.584779;0.592049;0.593331;0.598800;0.596443;0.609903;0.610466;0.614433;0.612943;0.618917;0.625466;0.628271;0.631292;0.633850;0.634215;0.638348;0.648063;0.647344;0.648828;0.649845;0.657013;0.654004;0.655680;0.660806;0.662420;0.662886;0.667984;0.665940;0.665644;0.674419;0.674201;0.674392;0.677983;0.679316;0.682614;0.684284;0.677074;0.677508;0.683770;0.675343;0.683572;0.680678;0.680632;0.683168;0.685536;0.684295;0.682740;0.685055;0.682268;0.680518;0.683658;0.682524;0.679896;0.677328;0.680188;0.681407;0.684361;0.677104;0.681148;0.677275;0.683039;0.679574;0.679969;0.677159;0.678144;0.675442;0.674606;0.672011;0.672892;0.677390;0.672274;0.671783;0.675890;0.672477;0.673021;0.674896;0.670495;0.670596;0.669026;0.672489;0.668276;0.678915;0.669281;0.669570;0.666215;0.672624;0.668566;0.670396;0.671462;0.674405;0.670471;0.664180;0.673658;0.668830;0.669996;0.667547;0.673797;0.667480;0.673189;0.677772;0.669142;0.673233;0.672240;0.671334;0.679115;0.675576;0.677696;0.680818;0.680073;0.681739;0.685890;0.683753;0.683849;0.684696;0.685695;0.685555;0.684260;0.686700;0.687160;0.689594;0.690515;0.690598;0.692750;0.694835;0.695719;0.699171;0.698953;0.699649;0.701539;0.695129;0.697153;0.700428;0.696892;0.690907;0.696523;0.693391;0.696016;0.695161;0.694834;0.692997;0.690907;0.690316;0.690681;0.686479;0.687518;0.685606;0.678916;0.681261;0.677130;0.673636;0.671206;0.666769;0.668077;0.662428;0.657213;0.653243;0.646723;0.646035;0.642263;0.640103;0.636835;0.631271;0.624172;0.621619;0.617595;0.614644;0.607328;0.605183;0.605796;0.600201;0.592274;0.592336;0.588302;0.579665;0.577021;0.571648;0.573056;0.560534;0.563601;0.557351;0.554586;0.552003;0.547938;0.542948
0.519001;0.522999;0.520187;0.527406;0.522308;0.526028;0.536771;0.531454;0.535252;0.539194;0.539044;0.540060;0.546136;0.549046;0.544416;0.552651;0.552821;0.553309;0.555727;0.561599;0.556127;0.563809;0.562666;0.563056;0.565601;0.569016;0.570018;0.571265;0.573564;0.573207;0.581453;0.581325;0.580308;0.582079;0.583795;0.589254;0.586060;0.591913;0.594513;0.594422;0.590209;0.592562;0.592821;0.596553;0.593710;0.599120;0.595276;0.596350;0.603517;0.598605;0.602463;0.599798;0.601175;0.603547;0.604673;0.606456;0.606491;0.606097;0.608247;0.606238;0.608136;0.608464;0.606872;0.609259;0.608320;0.607435;0.606561;0.613156;0.607532;0.614832;0.609640;0.612904;0.618262;0.622148;0.618519;0.622528;0.618216;0.623147;0.626955;0.623947;0.629332;0.634627;0.626749;0.638703;0.633664;0.642455;0.644159;0.645204;0.648861;0.649478;0.659498;0.656562;0.666793;0.664880;0.667801;0.676203;0.680818;0.678252;0.682110;0.682170;0.696224;0.694584;0.693938;0.700506;0.704329;0.705234;0.712977;0.714966;0.721178;0.724412;0.729614;0.729466;0.729963;0.736420;0.737532;0.740940;0.738068;0.745371;0.744817;0.748854;0.753771;0.752833;0.754802;0.757404;0.762506;0.762162;0.760038;0.766185;0.764119;0.768807;0.771268;0.770140;0.768549;0.772098;0.771607;0.771867;0.769870;0.770383;0.766316;0.768684;0.770454;0.770781;0.767852;0.762830;0.766662;0.768537;0.763956;0.760603;0.758623;0.759757;0.756520;0.756691;0.751653;0.750796;0.746087;0.744608;0.742008;0.738896;0.736083;0.734299;0.730032;0.722377;0.723659;0.716380;0.716485;0.710417;0.706897;0.703979;0.694996;0.695240;0.686704;0.680311;0.677282;0.673831;0.666912;0.663143;0.658008;0.652322;0.646983;0.641560;0.633835;0.635059;0.627202;0.626133;0.616114;0.606408;0.605896;0.596134;0.599814;0.594368;0.585141;0.581047;0.576201;0.576265;0.568268;0.564572;0.561537;0.558216;0.547596;0.548508
0.534877;0.539067;0.538543;0.542344;0.538358;0.545270;0.550934;0.549934;0.554900;0.553885;0.560401;0.566079;0.562101;0.574819;0.575675;0.577544;0.580701;0.583948;0.585033;0.586427;0.593478;0.596666;0.597325;0.606345;0.609103;0.610786;0.616042;0.621609;0.626566;0.625394;0.629803;0.633083;0.636005;0.639027;0.642467;0.646690;0.645662;0.649812;0.654445;0.660521;0.662118;0.665493;0.668487;0.667689;0.668568;0.669131;0.674686;0.672244;0.678387;0.679780;0.676027;0.682461;0.684770;0.680897;0.688720;0.689222;0.689595;0.685920;0.694735;0.692005;0.693500;0.692517;0.695396;0.696665;0.700308;0.699144;0.702102;0.698576;0.706131;0.696667;0.706550;0.700647;0.702114;0.694375;0.699183;0.697191;0.701208;0.698571;0.697590;0.700252;0.696046;0.698799;0.698153;0.694991;0.692894;0.690910;0.689181;0.688802;0.685555;0.687484;0.683615;0.684415;0.687655;0.678023;0.679530;0.678564;0.674745;0.678571;0.673124;0.671789;0.675368;0.670448;0.673451;0.667487;0.665463;0.670143;0.665583;0.664398;0.660622;0.659433;0.667467;0.658384;0.662757;0.656366;0.662242;0.658855;0.657676;0.658536;0.659255;0.659101;0.655874;0.659207;0.659757;0.655484;0.658403;0.660391;0.660189;0.665518;0.664777;0.665663;0.666250;0.666555;0.667683;0.669340;0.674826;0.674883;0.676502;0.678008;0.675995;0.681675;0.678427;0.679308;0.682802;0.684128;0.686505;0.688153;0.683967;0.687936;0.684606;0.688736;0.684912;0.689954;0.686732;0.689763;0.688390;0.683684;0.686108;0.685885;0.684349;0.682177;0.682870;0.677948;0.675310;0.677254;0.671389;0.672662;0.670076;0.665183;0.665090;0.656705;0.661697;0.651485;0.647292;0.646773;0.644025;0.632986;0.631551;0.630596;0.622885;0.623253;0.620369;0.614327;0.609322;0.600864;0.598626;0.594601;0.589935;0.585166;0.582876;0.578328;0.570977;0.567876;0.565141;0.559360;0.563776;0.557488;0.554314;0.550354;0.544479;0.543058
0.539473;0.539877;0.541054;0.544675;0.550151;0.552467;0.554905;0.557271;0.564012;0.560548;0.570913;0.565505;0.573801;0.575867;0.581812;0.582669;0.590530;0.589658;0.592162;0.598026;0.600685;0.606600;0.604585;0.611848;0.615483;0.616403;0.620711;0.623045;0.625299;0.628300;0.631831;0.633891;0.636203;0.637719;0.636726;0.645443;0.644180;0.642737;0.645517;0.646572;0.646878;0.643649;0.647021;0.648371;0.652852;0.642466;0.645491;0.645533;0.646528;0.648167;0.643205;0.639896;0.636930;0.637571;0.636913;0.641535;0.637881;0.636220;0.637724;0.630401;0.632147;0.630640;0.626895;0.626270;0.626978;0.629234;0.622619;0.623607;0.620812;0.626196;0.620879;0.622341;0.617172;0.621158;0.621001;0.618960;0.622481;0.624110;0.623226;0.623954;0.626755;0.625448;0.626736;0.633728;0.635925;0.635392;0.638828;0.639093;0.649573;0.648286;0.653597;0.657574;0.661272;0.662967;0.664114;0.675302;0.671688;0.685317;0.683415;0.689295;0.696412;0.701534;0.703280;0.701416;0.706578;0.714637;0.716436;0.727298;0.728584;0.731460;0.739256;0.736191;0.738431;0.741971;0.746022;0.750766;0.753359;0.754607;0.756881;0.759047;0.757926;0.762647;0.761824;0.766930;0.767688;0.767672;0.766564;0.763016;0.763120;0.763083;0.758885;0.759516;0.756824;0.761744;0.756408;0.758401;0.758028;0.749657;0.750587;0.751869;0.750067;0.740669;0.737745;0.732780;0.732965;0.728866;0.729679;0.722233;0.720686;0.714461;0.715375;0.714020;0.707405;0.701334;0.701522;0.697443;0.686348;0.691334;0.688829;0.680375;0.675315;0.670975;0.670938;0.664671;0.662479;0.655610;0.648906;0.647742;0.645449;0.638364;0.639755;0.632680;0.625576;0.623249;0.617136;0.617702;0.606948;0.607066;0.606958;0.598995;0.596518;0.587730;0.585423;0.586826;0.577905;0.578394;0.571104;0.570516;0.564810;0.562231;0.557066;0.555600;0.552902;0.547516;0.548007;0.546212;0.543650;0.539687;0.539834;0.532451
0.537474;0.542335;0.546484;0.549150;0.553053;0.553165;0.561534;0.559767;0.565514;0.568099;0.575174;0.574501;0.582994;0.582803;0.586291;0.593536;0.596403;0.598927;0.613780;0.609728;0.615988;0.619505;0.627011;0.632348;0.633270;0.644734;0.645971;0.655740;0.659411;0.664324;0.667101;0.670530;0.675405;0.675162;0.686780;0.686899;0.696484;0.701926;0.709657;0.709012;0.717846;0.721998;0.733561;0.731391;0.739359;0.746023;0.746717;0.753027;0.760988;0.757945;0.769727;0.773256;0.776018;0.782431;0.781660;0.786852;0.789966;0.802945;0.799179;0.803547;0.806830;0.809100;0.814501;0.818103;0.820239;0.825967;0.826326;0.826748;0.830824;0.829850;0.829630;0.832891;0.838220;0.832565;0.836321;0.834728;0.833732;0.834827;0.836406;0.831132;0.829825;0.830132;0.830013;0.824268;0.821836;0.817800;0.811499;0.807245;0.800823;0.798245;0.796828;0.790566;0.780704;0.779018;0.777209;0.765315;0.760551;0.754938;0.750460;0.742765;0.740746;0.733689;0.721047;0.721177;0.716140;0.704611;0.701051;0.692406;0.690355;0.678657;0.671013;0.665598;0.663840;0.657710;0.656324;0.648844;0.646493;0.634206;0.628974;0.625970;0.623990;0.615524;0.614168;0.615267;0.606563;0.602782;0.599621;0.591637;0.596353;0.596674;0.588791;0.589267;0.578410;0.581664;0.573994;0.574163;0.575208;0.570528;0.568428;0.569642;0.563493;0.565639;0.565470;0.562277;0.564506;0.559989;0.558698;0.559257;0.555967;0.556982;0.551957;0.557113;0.552490;0.548990;0.548837;0.547720;0.552426;0.543328;0.549833;0.548684;0.547628;0.539602;0.542182;0.541814;0.541947;0.536428;0.537985;0.540153;0.536324;0.534638;0.535590;0.532986;0.529735;0.533056;0.531668;0.526459;0.529790;0.524988;0.527247;0.524185;0.525194;0.523059;0.519643;0.517921;0.522368;0.517500;0.518932;0.516857;0.512838;0.515110;0.511866;0.511259;0.510614;0.511883;0.503136;0.505645;0.504962;0.505373;0.501090;0.507756
0.587958;0.596230;0.599631;0.602613;0.614075;0.616491;0.630466;0.636876;0.636512;0.646567;0.648538;0.662022;0.668645;0.674666;0.687120;0.695763;0.702021;0.709124;0.723534;0.726538;0.737315;0.742843;0.748469;0.757508;0.764117;0.773166;0.778069;0.788531;0.793753;0.802531;0.803115;0.808212;0.815110;0.821295;0.826229;0.829171;0.832536;0.831904;0.833667;0.832548;0.838452;0.836604;0.842590;0.840316;0.836728;0.842026;0.837842;0.837652;0.829873;0.831916;0.833083;0.827489;0.822499;0.819468;0.814634;0.814869;0.804523;0.806817;0.798201;0.792862;0.788307;0.781042;0.774163;0.767735;0.762913;0.762054;0.755918;0.752017;0.736104;0.736196;0.736766;0.724746;0.720380;0.711383;0.712682;0.703329;0.699612;0.696699;0.687836;0.685193;0.679845;0.670780;0.672005;0.664931;0.661147;0.651953;0.657190;0.653157;0.647645;0.645877;0.643265;0.637884;0.632353;0.630861;0.626316;0.629396;0.623519;0.626553;0.620898;0.614528;0.615956;0.613200;0.610385;0.610290;0.610706;0.607770;0.611564;0.602688;0.603703;0.603540;0.600574;0.606655;0.602459;0.602552;0.598363;0.595661;0.597777;0.596669;0.596175;0.594423;0.592314;0.598094;0.594480;0.594299;0.592665;0.593360;0.591780;0.591489;0.593915;0.592046;0.590104;0.591360;0.587066;0.587054;0.586508;0.584272;0.580729;0.582258;0.585282;0.582528;0.582109;0.582535;0.584530;0.578401;0.584431;0.581552;0.586067;0.579995;0.576122;0.577262;0.575689;0.574881;0.576599;0.576394;0.574564;0.571164;0.570769;0.569544;0.571919;0.570998;0.569030;0.569268;0.561874;0.562218;0.562695;0.562349;0.558287;0.559880;0.558364;0.554151;0.553638;0.552254;0.551316;0.550502;0.544786;0.543131;0.541652;0.544135;0.540092;0.544036;0.539167;0.536763;0.535574;0.537484;0.532832;0.535691;0.530944;0.530862;0.529898;0.529268;0.523859;0.524174;0.521633;0.525146;0.521917;0.524494;0.521110;0.518038;0.517628;0.511495
0.515044;0.522913;0.515636;0.519736;0.519986;0.520216;0.522295;0.520416;0.523593;0.527142;0.529364;0.529515;0.535715;0.531212;0.537645;0.539725;0.541554;0.545452;0.541187;0.543001;0.542121;0.546280;0.551985;0.550843;0.556535;0.554531;0.556966;0.560137;0.560418;0.565002;0.566724;0.568462;0.575311;0.572773;0.574769;0.575138;0.583167;0.583299;0.581756;0.585402;0.592266;0.588421;0.592225;0.596613;0.599136;0.603899;0.598994;0.606112;0.607598;0.607371;0.607376;0.613394;0.619301;0.617467;0.619714;0.622870;0.626423;0.629541;0.626876;0.638194;0.633092;0.637438;0.640830;0.640803;0.641724;0.648049;0.649029;0.651099;0.652997;0.658757;0.657291;0.659541;0.665755;0.671532;0.668643;0.675121;0.676569;0.674091;0.682703;0.684497;0.683957;0.683017;0.686626;0.691041;0.690977;0.696190;0.697057;0.694216;0.700538;0.704204;0.706629;0.709240;0.709807;0.712006;0.715279;0.716160;0.719004;0.724687;0.725793;0.722555;0.726963;0.727747;0.729857;0.728257;0.731631;0.734141;0.735387;0.736177;0.740774;0.741961;0.741817;0.748062;0.742620;0.743204;0.745665;0.748846;0.746088;0.748896;0.749339;0.749352;0.748191;0.750521;0.752435;0.747205;0.751163;0.746737;0.750811;0.752027;0.754451;0.754237;0.749381;0.749297;0.748739;0.746728;0.749682;0.744377;0.746232;0.739227;0.741187;0.739704;0.740981;0.742947;0.741053;0.739992;0.736779;0.735516;0.730803;0.725177;0.727554;0.722684;0.725843;0.723341;0.718428;0.715095;0.711650;0.711054;0.714415;0.709388;0.699032;0.698548;0.688100;0.691464;0.686036;0.680146;0.683985;0.677506;0.673111;0.668734;0.664286;0.662541;0.658991;0.652539;0.647112;0.646906;0.640748;0.632653;0.633482;0.622692;0.623483;0.613987;0.614904;0.606403;0.602330;0.595480;0.591187;0.594446;0.586335;0.584246;0.571657;0.578587;0.577526;0.567333;0.565976;0.554487;0.555829;0.551590;0.552095;0.547121;0.538837;0.540564
0.528475;0.534330;0.535036;0.537677;0.536968;0.542758;0.547045;0.543119;0.543657;0.551518;0.552095;0.552030;0.557011;0.561895;0.563490;0.572054;0.569041;0.572290;0.571404;0.576907;0.585291;0.583611;0.594303;0.588190;0.594059;0.594867;0.605496;0.604407;0.603172;0.610611;0.607419;0.612423;0.615437;0.613855;0.616532;0.617011;0.622983;0.623089;0.625336;0.628136;0.629562;0.628791;0.631634;0.635512;0.636447;0.637240;0.639545;0.639429;0.638190;0.641535;0.643374;0.645558;0.642219;0.644449;0.641843;0.642361;0.646312;0.646939;0.648233;0.647006;0.645101;0.646235;0.644914;0.646959;0.645640;0.643516;0.646862;0.647341;0.649138;0.648215;0.650523;0.652533;0.652078;0.650641;0.654514;0.648324;0.646989;0.650677;0.653444;0.654041;0.656759;0.656368;0.659105;0.658820;0.661723;0.658157;0.664213;0.663703;0.667315;0.665702;0.667380;0.672423;0.670612;0.673364;0.674381;0.679666;0.679567;0.680236;0.682941;0.688465;0.687686;0.689216;0.691613;0.690742;0.695372;0.694604;0.696882;0.697555;0.701063;0.700516;0.701668;0.709391;0.711917;0.709832;0.713337;0.716385;0.712098;0.711867;0.715172;0.719004;0.723077;0.717070;0.715381;0.724274;0.721484;0.725226;0.721546;0.719691;0.719273;0.722841;0.723805;0.718208;0.723286;0.726220;0.723739;0.723868;0.720687;0.721760;0.719829;0.715782;0.717889;0.716999;0.715879;0.716922;0.713712;0.714909;0.709188;0.707745;0.705230;0.707876;0.706664;0.704949;0.702815;0.698627;0.693893;0.692181;0.691591;0.690099;0.688253;0.681934;0.678123;0.674526;0.671066;0.674384;0.665240;0.663528;0.659591;0.657434;0.650261;0.649130;0.646284;0.639174;0.641113;0.635388;0.628290;0.628967;0.620263;0.614962;0.613147;0.603997;0.601757;0.597573;0.588610;0.587432;0.585121;0.579864;0.571039;0.568394;0.572328;0.560386;0.560596;0.558577;0.552572;0.546918;0.548571;0.540445;0.542759;0.540430;0.529756;0.527268
0.515507;0.520238;0.515362;0.517632;0.521036;0.522768;0.520027;0.519409;0.524187;0.523340;0.525121;0.527294;0.532811;0.536236;0.536560;0.536893;0.536532;0.537270;0.539128;0.541801;0.542479;0.548992;0.547883;0.552126;0.550935;0.554285;0.560827;0.560002;0.564067;0.570182;0.571966;0.573174;0.575598;0.579010;0.582619;0.584948;0.591295;0.593269;0.595332;0.598603;0.604584;0.608171;0.614800;0.615502;0.621085;0.621853;0.625860;0.628648;0.636828;0.638695;0.638955;0.650034;0.652886;0.656112;0.659565;0.664726;0.665267;0.668961;0.674093;0.681197;0.687602;0.689479;0.695146;0.700155;0.702473;0.702611;0.710772;0.710427;0.720614;0.717727;0.725486;0.724386;0.733988;0.731546;0.737946;0.738130;0.741865;0.743138;0.748120;0.747794;0.748338;0.748064;0.750511;0.754291;0.755923;0.752603;0.756199;0.755795;0.760628;0.763593;0.754245;0.755845;0.752956;0.758488;0.753412;0.755316;0.755244;0.754833;0.750156;0.751663;0.751847;0.753819;0.750076;0.749039;0.750080;0.747433;0.745437;0.745674;0.740289;0.736083;0.738175;0.738914;0.733224;0.735622;0.736811;0.735809;0.731062;0.732919;0.727035;0.729134;0.728860;0.728575;0.723399;0.723522;0.717210;0.717992;0.716523;0.718376;0.714446;0.708014;0.711635;0.713725;0.707589;0.706515;0.706256;0.702968;0.706871;0.697739;0.702299;0.700717;0.694874;0.692449;0.690814;0.689769;0.691841;0.685982;0.682099;0.684474;0.682527;0.681808;0.680494;0.671401;0.672832;0.669532;0.672518;0.664016;0.667338;0.662788;0.657212;0.651163;0.651976;0.652805;0.647527;0.644015;0.642199;0.637188;0.637962;0.630725;0.629746;0.624699;0.618915;0.627250;0.617757;0.615534;0.608728;0.603847;0.604128;0.596265;0.595451;0.591595;0.587345;0.589444;0.583764;0.574922;0.575035;0.571379;0.565249;0.564552;0.557346;0.559787;0.555239;0.555060;0.548293;0.540146;0.550299;0.543747;0.540824;0.544402;0.541040;0.531048
