1100;1105;1110;1115;1120;1125;1130;1135;1140;1145;1150;1155;1160;1165;1170;1175;1180;1185;1190;1195;1200;1205;1210;1215;1220;1225;1230;1235;1240;1245;1250;1255;1260;1265;1270;1275;1280;1285;1290;1295;1301;1306;1311;1316;1321;1326;1331;1336;1341;1346;1351;1356;1361;1366;1371;1376;1381;1386;1391;1396;1401;1406;1411;1416;1421;1426;1431;1436;1441;1446;1451;1456;1461;1466;1471;1476;1481;1486;1491;1496;1502;1507;1512;1517;1522;1527;1532;1537;1542;1547;1552;1557;1562;1567;1572;1577;1582;1587;1592;1597;1602;1607;1612;1617;1622;1627;1632;1637;1642;1647;1652;1657;1662;1667;1672;1677;1682;1687;1692;1697;1703;1708;1713;1718;1723;1728;1733;1738;1743;1748;1753;1758;1763;1768;1773;1778;1783;1788;1793;1798;1803;1808;1813;1818;1823;1828;1833;1838;1843;1848;1853;1858;1863;1868;1873;1878;1883;1888;1893;1898;1904;1909;1914;1919;1924;1929;1934;1939;1944;1949;1954;1959;1964;1969;1974;1979;1984;1989;1994;1999;2004;2009;2014;2019;2024;2029;2034;2039;2044;2049;2054;2059;2064;2069;2074;2079;2084;2089;2094;2100
-1.685854;-1.622547;-1.561291;-1.609011;-1.573263;-1.485960;-1.418815;-1.493373;-1.422315;-1.343044;-1.280296;-1.229705;-1.255562;-1.139631;-1.087464;-1.128442;-1.019172;-0.965670;-0.906494;-0.844535;-0.770012;-0.700193;-0.656976;-0.679415;-0.624423;-0.495726;-0.495388;-0.389257;-0.369219;-0.319630;-0.245158;-0.238490;-0.165437;-0.155308;-0.062142;0.018488;0.068839;0.113434;0.158145;0.221332;0.271369;0.381573;0.410099;0.363991;0.440582;0.458695;0.532285;0.568753;0.585422;0.611002;0.679287;0.741960;0.761530;0.780065;0.858411;0.876111;0.968955;0.940196;0.920697;1.011985;1.072225;1.060200;1.085538;1.132593;1.100984;1.140046;1.241510;1.186046;1.300177;1.266931;1.314748;1.350745;1.307577;1.318852;1.317113;1.318980;1.375166;1.402056;1.378604;1.384238;1.396659;1.328526;1.363094;1.328626;1.312515;1.273673;1.300652;1.364700;1.323744;1.301366;1.215477;1.314568;1.334996;1.205835;1.243298;1.257505;1.197036;1.208515;1.144274;1.145193;1.097720;1.078033;1.053398;1.104074;0.991082;0.948788;0.954435;0.892813;0.912066;0.848633;0.863940;0.731311;0.846354;0.728355;0.738846;0.700760;0.621163;0.658555;0.607268;0.551340;0.517968;0.564345;0.532878;0.480964;0.410299;0.403703;0.375984;0.357101;0.321407;0.315777;0.350558;0.261495;0.272718;0.254282;0.245775;0.216641;0.124007;0.154967;0.083778;0.080959;-0.004425;0.009887;-0.037689;-0.158961;-0.110863;-0.126834;-0.114933;-0.183662;-0.197494;-0.226681;-0.283934;-0.361425;-0.315089;-0.456293;-0.394244;-0.409146;-0.491400;-0.525527;-0.496899;-0.558860;-0.577208;-0.649257;-0.629675;-0.663295;-0.707609;-0.804998;-0.762194;-0.784727;-0.866788;-0.866114;-0.885576;-0.985218;-0.970457;-1.075508;-1.053905;-1.134623;-1.108288;-1.186964;-1.241961;-1.194455;-1.328568;-1.333923;-1.305854;-1.342923;-1.396356;-1.385125;-1.507931;-1.573519;-1.521792;-1.579020;-1.639921;-1.554166;-1.719907;-1.736256;-1.727397;-1.838734;-1.702487;-1.763112;-1.799713;-1.823117
-1.533921;-1.450511;-1.464623;-1.323247;-1.238469;-1.148516;-1.006520;-0.969888;-0.920586;-0.716751;-0.736625;-0.674352;-0.479464;-0.453069;-0.347405;-0.344726;-0.097119;-0.063644;0.028855;0.179373;0.283572;0.383169;0.459801;0.601047;0.631140;0.711585;0.863370;0.909861;0.906270;1.068681;1.078492;1.156759;1.236366;1.308328;1.359482;1.300562;1.421593;1.429786;1.514822;1.512350;1.531064;1.527776;1.524526;1.512773;1.424723;1.471169;1.552339;1.537644;1.438544;1.447356;1.342028;1.360488;1.302839;1.309668;1.255834;1.105487;1.083755;1.012478;1.012651;0.959553;0.898233;0.807025;0.770886;0.670647;0.681087;0.614268;0.502619;0.358517;0.439793;0.386751;0.294982;0.199802;0.205729;0.150115;0.036553;0.097789;-0.018037;0.025559;-0.017809;0.004099;-0.003940;-0.064560;-0.076474;-0.072317;-0.068526;-0.089774;-0.104235;-0.065049;-0.072921;-0.029712;0.018861;-0.051401;-0.045448;0.036216;0.053818;0.057366;0.149315;0.116979;0.179379;0.222670;0.184933;0.232546;0.277530;0.293316;0.320226;0.310459;0.404195;0.478975;0.522693;0.514136;0.570320;0.561860;0.624080;0.697386;0.583767;0.662689;0.688502;0.747500;0.780234;0.684894;0.806862;0.790542;0.732471;0.797312;0.729635;0.763439;0.714581;0.683442;0.728329;0.572133;0.623229;0.581266;0.616108;0.571319;0.590833;0.559298;0.462326;0.568304;0.390684;0.464056;0.338620;0.341093;0.210072;0.268525;0.158194;0.147805;0.131548;0.021250;-0.052172;0.066225;-0.028450;-0.096249;-0.156723;-0.254525;-0.322188;-0.306552;-0.402884;-0.358101;-0.451915;-0.555144;-0.628424;-0.641836;-0.632542;-0.738352;-0.756110;-0.827443;-0.829675;-0.885608;-1.049428;-1.032185;-1.079713;-1.169730;-1.192463;-1.275917;-1.361505;-1.322464;-1.367844;-1.351687;-1.500487;-1.535444;-1.574024;-1.676853;-1.653448;-1.713215;-1.748944;-1.807958;-1.848832;-1.879849;-1.976974;-2.015753;-2.013221;-2.034211;-2.141526;-2.086297;-2.146980;-2.260959;-2.204715;-2.182933;-2.326075;-2.400595
-1.352774;-1.333027;-1.280792;-1.274167;-1.103995;-1.075148;-1.045944;-0.998450;-0.884209;-0.821850;-0.699681;-0.708430;-0.693938;-0.529424;-0.398031;-0.468833;-0.337139;-0.289260;-0.220910;-0.131322;-0.107956;-0.006607;0.086247;0.172049;0.229180;0.243701;0.337741;0.446206;0.491787;0.548163;0.647797;0.659573;0.718461;0.761802;0.793010;0.821365;0.853708;0.908105;0.890180;1.019681;1.030383;1.011557;1.113427;1.048352;1.119825;1.023697;0.984382;1.060003;1.051560;1.030094;1.071523;0.961838;1.026342;1.006273;1.036549;0.992242;0.932265;0.981153;0.897986;0.873399;0.855465;0.810359;0.846941;0.736220;0.617918;0.715582;0.660363;0.623295;0.600549;0.592893;0.591152;0.516604;0.562562;0.541965;0.482350;0.535423;0.508740;0.454623;0.516248;0.467586;0.434884;0.499755;0.453064;0.530432;0.393467;0.436476;0.444982;0.548724;0.554607;0.538583;0.462266;0.578053;0.556567;0.607976;0.663183;0.655006;0.658932;0.658016;0.720037;0.752119;0.719578;0.887386;0.837503;0.839462;0.869482;0.908641;0.905640;0.874670;0.916602;0.965548;0.981899;0.987480;1.063398;1.010532;1.028535;1.012673;0.904823;0.917992;0.981714;1.066282;1.001243;0.954321;0.995467;0.899408;0.845005;0.872759;0.950695;0.780772;0.829616;0.758725;0.711104;0.674058;0.628846;0.648367;0.559510;0.466830;0.444845;0.349874;0.352659;0.295345;0.252431;0.150971;0.107158;0.028804;-0.089324;-0.077871;-0.145080;-0.126259;-0.256435;-0.313792;-0.354989;-0.427762;-0.523877;-0.529762;-0.565165;-0.631991;-0.691172;-0.675102;-0.859120;-0.893820;-0.901392;-0.899150;-0.975571;-1.011802;-1.098998;-1.122847;-1.148415;-1.219212;-1.295205;-1.306548;-1.409455;-1.365767;-1.436883;-1.456994;-1.463030;-1.476822;-1.558784;-1.637268;-1.634245;-1.638563;-1.750403;-1.708393;-1.793389;-1.733052;-1.835621;-1.845913;-1.886553;-1.894732;-1.885807;-1.903523;-1.914989;-1.896827;-2.026103;-1.920252;-2.033528;-2.071267;-2.045868;-2.074257;-2.159916;-2.143476
-1.698258;-1.751814;-1.796986;-1.679511;-1.711277;-1.704390;-1.647794;-1.641212;-1.620781;-1.588137;-1.600168;-1.552423;-1.514246;-1.504379;-1.489256;-1.425864;-1.378711;-1.441790;-1.422128;-1.364297;-1.333408;-1.329424;-1.252413;-1.249648;-1.220431;-1.134279;-1.156417;-1.080991;-1.023863;-1.058498;-0.952606;-0.982737;-0.917779;-0.814803;-0.742936;-0.752346;-0.740287;-0.660883;-0.636656;-0.592266;-0.558227;-0.491182;-0.428057;-0.376935;-0.293214;-0.258317;-0.188078;-0.140748;-0.084136;-0.053607;0.052043;0.144182;0.175956;0.210986;0.367380;0.425136;0.402205;0.455249;0.622526;0.638921;0.664264;0.780976;0.749574;0.816080;0.965225;0.959841;1.046848;1.042876;1.157031;1.184385;1.228339;1.242593;1.324257;1.382079;1.422568;1.446481;1.426707;1.427035;1.476122;1.519298;1.490811;1.600045;1.551669;1.565675;1.533712;1.574188;1.576989;1.540204;1.567837;1.518630;1.472059;1.491496;1.511459;1.448903;1.416198;1.365384;1.387779;1.357563;1.367767;1.306843;1.257723;1.219876;1.189540;1.186197;1.137027;1.097252;1.099306;1.029941;1.052350;0.968787;0.950980;0.915521;0.819389;0.873017;0.804692;0.759447;0.732284;0.672815;0.673670;0.678371;0.585476;0.587880;0.572021;0.502650;0.476909;0.514181;0.490950;0.456137;0.369701;0.390848;0.394498;0.370145;0.381349;0.355320;0.303670;0.319722;0.284250;0.304333;0.270467;0.279421;0.230223;0.166893;0.174343;0.176924;0.164102;0.221141;0.114054;0.141337;0.159486;0.084053;0.071451;0.048015;0.098646;0.076177;-0.008573;0.003838;-0.033239;-0.029194;-0.064438;-0.079131;-0.086810;-0.119654;-0.166331;-0.213348;-0.283811;-0.243054;-0.315485;-0.349883;-0.313077;-0.465515;-0.409299;-0.454798;-0.510590;-0.531057;-0.565954;-0.657405;-0.676885;-0.664732;-0.755882;-0.700876;-0.815206;-0.823345;-0.870783;-0.896937;-0.963324;-1.015789;-1.061853;-1.058199;-1.076970;-1.141594;-1.176847;-1.183106;-1.292439;-1.270283;-1.313279;-1.331074;-1.355527;-1.425995;-1.421016;-1.429993
-1.326547;-1.343326;-1.262527;-1.239407;-1.160303;-1.120078;-1.073053;-1.070580;-0.971370;-0.922510;-0.858980;-0.836522;-0.743597;-0.742355;-0.710043;-0.566335;-0.549329;-0.496551;-0.434230;-0.343075;-0.325734;-0.334101;-0.225577;-0.197580;-0.101405;-0.016042;0.004980;0.050246;0.084950;0.180243;0.179320;0.159675;0.255765;0.308955;0.256042;0.368826;0.328406;0.423352;0.441614;0.412992;0.461043;0.489325;0.465988;0.436595;0.502244;0.501096;0.465636;0.566402;0.500280;0.506485;0.465641;0.467777;0.433291;0.480988;0.389787;0.385804;0.380566;0.271069;0.364534;0.333455;0.377427;0.331888;0.352748;0.313719;0.219289;0.253060;0.272754;0.189348;0.150505;0.216117;0.262698;0.239050;0.229123;0.157687;0.147069;0.203393;0.243304;0.220829;0.230894;0.274491;0.341984;0.271583;0.268222;0.339206;0.385238;0.410328;0.398948;0.517896;0.521246;0.528288;0.541897;0.626678;0.682151;0.711239;0.792719;0.809630;0.878081;0.937011;1.028186;1.029883;1.079190;1.087808;1.131405;1.185505;1.291694;1.287964;1.311061;1.402694;1.457214;1.462348;1.492387;1.488843;1.576769;1.540914;1.586025;1.502208;1.541125;1.578795;1.563865;1.570398;1.537886;1.524862;1.525887;1.538568;1.525476;1.500752;1.407765;1.376335;1.353033;1.272179;1.222496;1.111989;1.173714;1.074558;0.953367;0.894670;0.885327;0.819318;0.686690;0.691244;0.611535;0.422421;0.399814;0.326870;0.240569;0.165881;0.166663;0.067560;-0.065050;-0.069820;-0.186726;-0.258731;-0.346423;-0.405353;-0.509381;-0.497364;-0.633245;-0.656456;-0.737202;-0.756596;-0.805976;-0.938670;-0.959109;-0.988454;-1.056153;-1.114749;-1.082856;-1.219711;-1.245445;-1.200300;-1.343383;-1.363795;-1.336665;-1.403547;-1.417212;-1.475470;-1.482826;-1.534913;-1.609431;-1.568777;-1.538412;-1.643629;-1.609384;-1.597979;-1.692304;-1.704622;-1.678339;-1.735037;-1.770700;-1.726266;-1.721907;-1.725390;-1.750464;-1.805522;-1.766846;-1.823517;-1.804695;-1.845738;-1.804236;-1.858889
-1.203458;-1.220193;-1.223837;-1.154063;-1.102521;-1.097462;-1.063446;-1.024032;-0.974539;-0.933966;-0.884425;-0.838795;-0.741810;-0.749000;-0.721224;-0.663907;-0.607839;-0.548662;-0.524733;-0.416014;-0.414840;-0.335661;-0.313693;-0.312064;-0.280624;-0.208258;-0.155267;-0.132756;-0.104434;-0.058069;0.007051;-0.053037;0.066537;0.106356;0.132577;0.129191;0.226641;0.187560;0.249207;0.262837;0.295535;0.334594;0.370849;0.294829;0.324377;0.363698;0.360991;0.329631;0.368186;0.318942;0.395236;0.356650;0.337486;0.371353;0.386267;0.344848;0.359612;0.327978;0.299481;0.336574;0.307255;0.317880;0.303279;0.314922;0.309750;0.328600;0.272005;0.303056;0.317706;0.308845;0.349380;0.333412;0.342548;0.351110;0.363837;0.407592;0.315904;0.389949;0.405347;0.488618;0.444293;0.492638;0.481435;0.598620;0.629796;0.633576;0.654839;0.712643;0.701894;0.766878;0.778802;0.821348;0.866774;0.930630;0.936540;0.986373;1.065656;1.115111;1.126681;1.099691;1.204627;1.227866;1.312551;1.288998;1.277041;1.466264;1.465859;1.468233;1.492781;1.473650;1.509594;1.581363;1.552053;1.615592;1.598944;1.571320;1.549778;1.610894;1.616794;1.542614;1.558723;1.583138;1.473890;1.442772;1.424304;1.440949;1.310916;1.320938;1.265216;1.218427;1.170788;1.103710;1.062655;0.991780;0.903663;0.865347;0.766680;0.709742;0.659967;0.522314;0.461312;0.391945;0.275694;0.237818;0.158430;0.106290;0.042615;-0.119709;-0.142112;-0.215499;-0.297206;-0.275323;-0.372592;-0.446833;-0.546395;-0.590694;-0.707539;-0.690018;-0.850593;-0.811141;-0.903765;-0.947874;-1.040227;-1.047336;-1.134546;-1.158844;-1.134316;-1.256763;-1.303964;-1.267487;-1.262795;-1.375674;-1.403257;-1.404759;-1.444061;-1.467854;-1.537159;-1.465115;-1.545166;-1.561129;-1.556380;-1.572476;-1.527900;-1.576582;-1.588854;-1.605473;-1.621892;-1.653070;-1.667534;-1.729991;-1.697268;-1.651389;-1.714470;-1.638197;-1.695759;-1.703266;-1.706608;-1.714922;-1.720157;-1.684559
-0.324755;-0.303998;-0.253491;-0.158540;-0.133892;-0.025262;-0.003795;0.084467;0.143009;0.213105;0.253075;0.371392;0.397797;0.476915;0.609022;0.664490;0.701904;0.766372;0.878097;0.930894;1.034166;1.098976;1.136893;1.240957;1.275891;1.337601;1.410773;1.471123;1.521812;1.542938;1.628221;1.660476;1.738455;1.701074;1.807647;1.826554;1.863145;1.890468;1.861916;1.902211;1.898957;1.901011;1.897785;1.894436;1.919759;1.864403;1.858264;1.852045;1.847735;1.788970;1.742525;1.752067;1.706085;1.608248;1.635777;1.582730;1.498625;1.436064;1.439386;1.356174;1.287772;1.261676;1.223307;1.126666;1.043187;1.024075;0.937581;0.894290;0.853702;0.795848;0.723697;0.638864;0.581475;0.535536;0.488503;0.420838;0.329553;0.308143;0.224294;0.161600;0.164148;0.104715;0.094792;0.037914;0.006256;-0.025723;-0.043697;-0.095032;-0.134928;-0.161699;-0.192967;-0.239383;-0.243735;-0.257834;-0.323825;-0.356149;-0.382351;-0.374715;-0.416967;-0.405731;-0.443084;-0.424539;-0.439758;-0.478193;-0.475589;-0.530760;-0.507957;-0.541488;-0.542861;-0.556802;-0.578398;-0.577851;-0.601358;-0.619366;-0.643466;-0.607984;-0.639320;-0.635319;-0.634709;-0.614676;-0.629193;-0.637358;-0.683133;-0.649191;-0.624341;-0.687642;-0.667222;-0.693285;-0.704667;-0.694428;-0.694800;-0.719165;-0.723823;-0.752187;-0.716391;-0.731120;-0.763352;-0.763861;-0.794992;-0.737931;-0.768933;-0.773718;-0.768613;-0.783604;-0.783160;-0.790634;-0.823726;-0.826679;-0.803050;-0.814268;-0.835536;-0.844932;-0.820305;-0.871908;-0.863734;-0.869493;-0.874115;-0.863968;-0.870972;-0.909674;-0.910139;-0.908095;-0.880939;-0.909366;-0.975928;-0.919517;-0.959168;-0.967682;-0.952849;-0.917513;-0.951202;-0.946519;-0.956587;-0.973834;-0.966323;-1.009197;-1.029685;-0.993950;-1.021377;-1.029343;-1.033768;-1.040016;-0.981254;-1.019986;-1.065194;-1.029793;-1.030640;-1.064632;-1.080217;-1.067375;-1.077975;-1.070373;-1.037597;-1.097648;-1.161168;-1.133784;-1.099404;-1.125519;-1.100065;-1.114641
-2.023461;-2.005079;-1.889870;-1.818126;-1.890474;-1.729480;-1.689744;-1.636200;-1.529885;-1.429533;-1.402185;-1.304563;-1.240559;-1.166596;-1.035952;-1.040465;-0.886173;-0.830856;-0.763910;-0.752329;-0.567820;-0.589866;-0.464838;-0.378944;-0.289317;-0.228559;-0.141826;0.021032;-0.000519;0.180175;0.180464;0.227887;0.326397;0.474650;0.478044;0.558484;0.648460;0.639619;0.745312;0.826111;0.889135;0.860641;0.928668;1.063588;1.091929;1.028655;1.202485;1.120419;1.202282;1.289840;1.303010;1.240236;1.408083;1.384976;1.485114;1.419621;1.455233;1.433728;1.497797;1.413123;1.451162;1.630262;1.500099;1.599241;1.532724;1.569301;1.554438;1.442922;1.487636;1.471785;1.522567;1.524677;1.564577;1.447908;1.447948;1.460824;1.388614;1.332868;1.271931;1.312525;1.221299;1.246243;1.291892;1.194133;1.160276;1.057499;1.062036;1.055766;0.965336;0.934717;0.894015;0.885985;0.762953;0.842712;0.632938;0.568194;0.616014;0.490446;0.425878;0.482406;0.412427;0.313958;0.246352;0.165994;0.176997;-0.053127;-0.020999;0.004235;-0.051287;-0.090407;-0.169170;-0.131556;-0.188147;-0.205757;-0.217850;-0.214541;-0.291139;-0.233633;-0.260269;-0.362986;-0.373740;-0.396683;-0.402518;-0.319028;-0.303585;-0.382615;-0.277202;-0.312460;-0.308116;-0.411158;-0.334909;-0.359501;-0.328157;-0.221163;-0.208330;-0.237904;-0.251353;-0.171839;-0.100351;-0.148353;-0.071868;-0.123371;-0.061982;-0.123376;-0.128199;-0.085802;-0.035438;-0.033734;0.027541;0.083773;0.072327;0.027604;0.043623;-0.001780;0.032182;0.071273;0.077448;0.028631;0.065449;-0.022938;-0.005533;-0.033002;-0.074881;0.062231;-0.132670;-0.260886;-0.236399;-0.154729;-0.246283;-0.223335;-0.403775;-0.455271;-0.487515;-0.503289;-0.636030;-0.641213;-0.688891;-0.757189;-0.776228;-0.974175;-0.986119;-1.059334;-1.128340;-1.107998;-1.255203;-1.321730;-1.431849;-1.443306;-1.481408;-1.539254;-1.764087;-1.643736;-1.705578;-1.854710;-1.912578;-2.015707;-2.005849;-2.007644;-2.044422;-2.086399
-0.345638;-0.313123;-0.202720;-0.113670;-0.098566;-0.043113;-0.017466;0.116683;0.186377;0.195260;0.333772;0.408808;0.465319;0.598391;0.670195;0.770981;0.830270;0.915937;0.973127;1.078015;1.131443;1.197463;1.267361;1.323606;1.436335;1.482872;1.545204;1.634042;1.694303;1.747042;1.779138;1.825315;1.866394;1.919736;1.912580;1.977685;2.010781;2.009027;2.036706;2.032774;2.059485;2.053639;2.005529;2.011427;2.044284;1.940098;1.957771;1.954218;1.886972;1.863983;1.750115;1.728403;1.672362;1.632241;1.546700;1.518127;1.466913;1.392387;1.313319;1.247697;1.165166;1.115978;1.008733;0.958812;0.866910;0.794023;0.697518;0.632200;0.509979;0.474592;0.380689;0.308879;0.256921;0.167588;0.092051;0.022164;0.001863;-0.080159;-0.140689;-0.235176;-0.255236;-0.325831;-0.340967;-0.459814;-0.503404;-0.541849;-0.595374;-0.586149;-0.647473;-0.680312;-0.699921;-0.753091;-0.769839;-0.821972;-0.808140;-0.885502;-0.852741;-0.897286;-0.933201;-0.953604;-0.945232;-0.979653;-0.957251;-0.963146;-0.973579;-0.959238;-0.928124;-0.991507;-0.962957;-1.026801;-0.983959;-0.987502;-0.975408;-0.986811;-0.954998;-0.934427;-0.924351;-0.944781;-0.968294;-0.891729;-0.916868;-0.909494;-0.882406;-0.864077;-0.850241;-0.851081;-0.849655;-0.786412;-0.754027;-0.810993;-0.785447;-0.699672;-0.703955;-0.697391;-0.726652;-0.662305;-0.675785;-0.635650;-0.582832;-0.559568;-0.583116;-0.584804;-0.543298;-0.526645;-0.517321;-0.526611;-0.452646;-0.474356;-0.465646;-0.449265;-0.424423;-0.444013;-0.428203;-0.411774;-0.420849;-0.431258;-0.390754;-0.374042;-0.430986;-0.377156;-0.389060;-0.412792;-0.388557;-0.409600;-0.402148;-0.401788;-0.439775;-0.448998;-0.475596;-0.479740;-0.484636;-0.536032;-0.505783;-0.546891;-0.508735;-0.608740;-0.606964;-0.621923;-0.634372;-0.683568;-0.637680;-0.684870;-0.694084;-0.743520;-0.780305;-0.771798;-0.795931;-0.813419;-0.816857;-0.879216;-0.894462;-0.910888;-0.916820;-0.958823;-0.920765;-0.965379;-1.029867;-1.010238;-1.005521;-1.053079
-1.340893;-1.358703;-1.326347;-1.281595;-1.343673;-1.304147;-1.291239;-1.340838;-1.351306;-1.246372;-1.257072;-1.280335;-1.260431;-1.284562;-1.269376;-1.250767;-1.216661;-1.235930;-1.201509;-1.226765;-1.186836;-1.177008;-1.193136;-1.172424;-1.183415;-1.145716;-1.120924;-1.142756;-1.123997;-1.083737;-1.135919;-1.119914;-1.094903;-1.127672;-1.096102;-1.054318;-1.092914;-1.065783;-1.004993;-0.977663;-1.040964;-0.988069;-0.986943;-0.980939;-0.976302;-0.980073;-0.938253;-0.955661;-0.964784;-0.932066;-0.916799;-0.891562;-0.949097;-0.918941;-0.889392;-0.826289;-0.828713;-0.828233;-0.852079;-0.772921;-0.823929;-0.762133;-0.724437;-0.668265;-0.761321;-0.730081;-0.675775;-0.682402;-0.594347;-0.648154;-0.560378;-0.562153;-0.549509;-0.507098;-0.451842;-0.436660;-0.369831;-0.366568;-0.325895;-0.319923;-0.294482;-0.260028;-0.201845;-0.182092;-0.110795;-0.067840;-0.008724;0.018336;0.066592;0.084281;0.132779;0.193503;0.208555;0.281760;0.363668;0.427499;0.425324;0.466889;0.592214;0.591975;0.620469;0.646000;0.782250;0.766210;0.868877;0.879150;0.901083;0.955465;1.025374;1.088865;1.156488;1.152686;1.126244;1.238132;1.249301;1.312154;1.328506;1.400487;1.348699;1.341606;1.409980;1.430279;1.451767;1.489266;1.475801;1.515196;1.537927;1.511215;1.527040;1.577118;1.538483;1.546002;1.578947;1.532247;1.547865;1.531737;1.562506;1.495214;1.518748;1.487237;1.476814;1.505298;1.409451;1.460642;1.429004;1.384031;1.372414;1.347288;1.320792;1.324035;1.277218;1.236822;1.203332;1.219253;1.157068;1.152899;1.075568;1.058289;1.011467;0.972395;0.905771;0.879730;0.857793;0.799619;0.768559;0.709327;0.680970;0.636326;0.580489;0.552347;0.433890;0.402846;0.308836;0.304321;0.256754;0.198016;0.144074;0.076780;0.051051;-0.041262;-0.086117;-0.147990;-0.189347;-0.264342;-0.326758;-0.339310;-0.415262;-0.444842;-0.494015;-0.541807;-0.592155;-0.639384;-0.712735;-0.725365;-0.798603;-0.820877;-0.870868;-0.901906;-0.912218;-0.949175
-1.344744;-1.284271;-1.282208;-1.265544;-1.220498;-1.248681;-1.268673;-1.239231;-1.259881;-1.208587;-1.268734;-1.235021;-1.230400;-1.271341;-1.233929;-1.218100;-1.192927;-1.186489;-1.196448;-1.161683;-1.195179;-1.160993;-1.146687;-1.136159;-1.153166;-1.092015;-1.087532;-1.068141;-1.073142;-1.048045;-1.028487;-1.007360;-1.003291;-0.975325;-0.961754;-0.933710;-0.885985;-0.851178;-0.881165;-0.809691;-0.790042;-0.789111;-0.705148;-0.703971;-0.667749;-0.638751;-0.567252;-0.569527;-0.518105;-0.492170;-0.433185;-0.417906;-0.353619;-0.324652;-0.321007;-0.226919;-0.165798;-0.146515;-0.093079;-0.072954;-0.016229;0.047960;0.118727;0.149516;0.195859;0.221862;0.299485;0.360314;0.374772;0.381649;0.521829;0.539474;0.556495;0.636233;0.633394;0.708481;0.720786;0.713160;0.813139;0.834390;0.903695;0.920173;0.972998;1.003663;1.061143;1.082906;1.132721;1.168006;1.171075;1.262892;1.233875;1.253380;1.331794;1.372211;1.380544;1.405411;1.390282;1.454697;1.459599;1.468832;1.541944;1.504206;1.541888;1.505164;1.533167;1.572203;1.556347;1.556739;1.535223;1.598595;1.559664;1.551922;1.529747;1.575398;1.542219;1.533659;1.493938;1.480882;1.526874;1.462741;1.456442;1.433033;1.397780;1.365113;1.317979;1.335138;1.262400;1.238121;1.206114;1.140905;1.095694;1.074793;1.041148;1.003354;0.922213;0.867162;0.834298;0.781349;0.699925;0.681054;0.644319;0.580745;0.529269;0.460457;0.438860;0.375097;0.289255;0.253661;0.174040;0.135604;0.112792;0.047506;0.014893;-0.019065;-0.096955;-0.158383;-0.156202;-0.216543;-0.272433;-0.304054;-0.377733;-0.381513;-0.434259;-0.458004;-0.506083;-0.547421;-0.566006;-0.590183;-0.631074;-0.710175;-0.724024;-0.711050;-0.749054;-0.755843;-0.810330;-0.829437;-0.855076;-0.865630;-0.870508;-0.879555;-0.919113;-0.953787;-1.000451;-0.996338;-0.996991;-1.007835;-1.079064;-1.080217;-1.044311;-1.059814;-1.080203;-1.118754;-1.097617;-1.066377;-1.104132;-1.141181;-1.164629;-1.141140;-1.163709;-1.148113
-1.532046;-1.532138;-1.436832;-1.374163;-1.307366;-1.312757;-1.195447;-1.138140;-1.151550;-1.072770;-1.064314;-1.047712;-0.922792;-0.812776;-0.811276;-0.737864;-0.773997;-0.658499;-0.611114;-0.555172;-0.381612;-0.418529;-0.357041;-0.312298;-0.266058;-0.331909;-0.191663;-0.126311;-0.101681;-0.023675;-0.013263;0.033376;0.086591;0.073423;0.146226;0.118269;0.230204;0.138687;0.160868;0.191776;0.211217;0.258373;0.189530;0.187777;0.242487;0.153562;0.116156;0.074631;0.123255;0.078204;0.104123;0.081265;-0.002505;-0.036070;0.009772;-0.027260;-0.122135;-0.084235;-0.079471;-0.185442;-0.146346;-0.238208;-0.249363;-0.297354;-0.289400;-0.277280;-0.372733;-0.317974;-0.387288;-0.423025;-0.396917;-0.483673;-0.413348;-0.424659;-0.422490;-0.453228;-0.391112;-0.417501;-0.394437;-0.351047;-0.337951;-0.325724;-0.270305;-0.242453;-0.254981;-0.149695;-0.121642;-0.063218;0.013266;0.064815;0.136978;0.179005;0.253713;0.327116;0.408944;0.445297;0.549136;0.626280;0.677679;0.690876;0.782244;0.878941;1.008406;1.016585;1.130434;1.166804;1.248069;1.338300;1.412052;1.470701;1.508967;1.535951;1.653071;1.643347;1.673178;1.700976;1.821461;1.775989;1.802387;1.814640;1.829039;1.800266;1.841329;1.830827;1.833142;1.825507;1.735223;1.778599;1.758329;1.739218;1.721646;1.714716;1.622929;1.549483;1.536496;1.473150;1.407229;1.344969;1.326703;1.271927;1.132991;1.103301;1.097171;1.014212;0.871018;0.866350;0.748322;0.693325;0.622793;0.583195;0.543178;0.437615;0.375050;0.267865;0.245300;0.125896;0.076225;0.009032;-0.084061;-0.103726;-0.188012;-0.263960;-0.317455;-0.390341;-0.395814;-0.566305;-0.518258;-0.639758;-0.681357;-0.748877;-0.817349;-0.839416;-0.931311;-0.924396;-0.944262;-0.995465;-1.122282;-1.104359;-1.180489;-1.177993;-1.315930;-1.233558;-1.362307;-1.308842;-1.413152;-1.475487;-1.492321;-1.514599;-1.538431;-1.590697;-1.579936;-1.697976;-1.691396;-1.749104;-1.729672;-1.735981;-1.787025;-1.781243;-1.755529;-1.807278
-0.403722;-0.373688;-0.297805;-0.229475;-0.187167;-0.059053;-0.001609;0.011740;0.127583;0.208741;0.254972;0.358504;0.450140;0.524102;0.620395;0.689196;0.746133;0.821435;0.882887;1.029876;1.060434;1.147145;1.205865;1.267651;1.383054;1.438865;1.513018;1.550210;1.624948;1.632238;1.729970;1.775709;1.783849;1.877527;1.876992;1.899005;1.928571;1.970356;1.971105;1.992398;1.979093;1.964363;2.039688;1.937854;1.967243;1.947642;1.903043;1.863444;1.827690;1.794517;1.769754;1.736233;1.661774;1.639462;1.544637;1.479272;1.470698;1.406233;1.291070;1.269327;1.176438;1.096914;1.056800;0.971718;0.900723;0.819499;0.791503;0.677797;0.617415;0.576705;0.525326;0.442371;0.327893;0.314081;0.261486;0.194117;0.090377;0.066015;0.060285;0.001754;-0.009446;-0.090997;-0.140460;-0.174873;-0.181660;-0.198649;-0.274148;-0.312502;-0.320197;-0.309229;-0.377253;-0.361734;-0.376144;-0.384978;-0.433718;-0.441394;-0.459653;-0.419434;-0.478630;-0.442783;-0.437435;-0.524808;-0.469193;-0.460907;-0.507006;-0.438248;-0.443813;-0.436136;-0.461333;-0.433132;-0.427022;-0.430207;-0.407433;-0.413625;-0.432793;-0.433215;-0.370812;-0.437059;-0.408410;-0.459109;-0.375992;-0.449145;-0.454886;-0.439964;-0.456184;-0.473774;-0.463253;-0.473701;-0.460492;-0.469987;-0.480218;-0.502595;-0.484170;-0.488670;-0.482812;-0.523290;-0.574756;-0.528895;-0.558621;-0.554931;-0.579663;-0.630750;-0.620021;-0.600364;-0.645525;-0.665039;-0.672213;-0.681175;-0.710243;-0.735944;-0.722045;-0.752626;-0.748709;-0.764916;-0.763387;-0.824507;-0.854150;-0.838510;-0.843590;-0.879267;-0.885687;-0.894417;-0.914021;-0.902122;-0.926691;-0.959908;-0.968583;-0.961908;-1.010735;-1.005310;-1.035796;-1.022114;-1.022101;-1.057342;-1.088440;-1.030929;-1.083834;-1.093699;-1.114622;-1.068292;-1.101463;-1.140704;-1.133640;-1.134003;-1.179410;-1.159057;-1.187929;-1.184492;-1.185126;-1.186042;-1.190300;-1.181083;-1.240499;-1.223263;-1.260069;-1.219195;-1.274055;-1.228078;-1.263970;-1.296862
-1.704867;-1.624475;-1.546135;-1.579049;-1.536039;-1.406054;-1.344241;-1.351600;-1.357427;-1.233395;-1.168306;-1.167304;-1.126058;-1.063758;-0.965539;-0.949760;-0.975392;-0.846672;-0.850676;-0.749644;-0.688605;-0.664665;-0.633910;-0.542062;-0.505515;-0.471195;-0.418995;-0.397408;-0.297094;-0.315256;-0.313360;-0.303010;-0.217574;-0.226811;-0.166624;-0.126015;-0.116566;-0.088068;-0.080430;-0.026561;-0.139150;-0.028621;-0.038244;-0.061944;-0.092915;-0.121528;-0.098393;-0.141399;-0.167267;-0.183891;-0.190107;-0.228449;-0.210642;-0.202273;-0.309069;-0.301340;-0.412371;-0.398086;-0.462929;-0.405943;-0.484522;-0.517542;-0.543268;-0.615581;-0.623308;-0.604152;-0.714993;-0.721700;-0.750854;-0.816728;-0.775995;-0.820263;-0.895757;-0.879705;-0.872626;-1.008313;-0.953164;-1.025255;-0.937230;-0.986116;-1.007712;-1.053999;-0.977035;-0.961805;-0.942805;-1.015190;-0.993649;-1.000047;-1.041439;-0.967314;-0.931468;-0.895116;-0.863990;-0.868713;-0.859453;-0.796405;-0.823972;-0.740387;-0.692315;-0.638452;-0.611250;-0.587478;-0.499532;-0.558139;-0.564715;-0.424382;-0.293835;-0.396706;-0.206347;-0.268515;-0.219975;-0.151355;-0.099206;-0.041059;-0.012377;0.111965;0.200147;0.141612;0.242898;0.386892;0.405855;0.443106;0.521313;0.557099;0.640231;0.654547;0.772208;0.823921;0.947651;0.944442;0.956312;1.012255;1.169131;1.181704;1.264189;1.294303;1.341280;1.401758;1.516759;1.508568;1.581666;1.589099;1.659589;1.722603;1.742050;1.728472;1.806964;1.877021;1.885474;1.872628;1.835239;1.934998;1.864622;1.981038;1.869056;1.949012;1.896819;1.902128;1.867360;1.897124;1.795823;1.775583;1.731056;1.692362;1.659532;1.673508;1.612523;1.511464;1.486455;1.418610;1.262614;1.203388;1.104147;1.101622;0.990254;0.884641;0.770354;0.695548;0.564325;0.502907;0.446409;0.321914;0.268386;0.179390;0.049988;0.039487;-0.165979;-0.282435;-0.299950;-0.393494;-0.448693;-0.606603;-0.645604;-0.772278;-0.801999;-0.974930;-0.948904;-1.025409;-1.153849;-1.231384
-1.256431;-1.300870;-1.291265;-1.288374;-1.288470;-1.263541;-1.290345;-1.232244;-1.190617;-1.277585;-1.277277;-1.221589;-1.200457;-1.224995;-1.197101;-1.203379;-1.175047;-1.193293;-1.160225;-1.163119;-1.180414;-1.156726;-1.184862;-1.138886;-1.122290;-1.118581;-1.115907;-1.159417;-1.140899;-1.105513;-1.093738;-1.114561;-1.119783;-1.102634;-1.132427;-1.069044;-1.052362;-1.064133;-1.066865;-1.035246;-1.035870;-1.022509;-0.991910;-1.028525;-1.003870;-1.018592;-1.004244;-0.976601;-0.987068;-0.974528;-0.978353;-0.946399;-0.918443;-0.889050;-0.910594;-0.941558;-0.933368;-0.883597;-0.882029;-0.873370;-0.832133;-0.824287;-0.832043;-0.783274;-0.788145;-0.740615;-0.776112;-0.767712;-0.739158;-0.688618;-0.627374;-0.635056;-0.608685;-0.618388;-0.589797;-0.561307;-0.511676;-0.450821;-0.446111;-0.397837;-0.357435;-0.376472;-0.307459;-0.217995;-0.248439;-0.131757;-0.118690;-0.087048;-0.022700;0.021413;0.064409;0.152839;0.120318;0.180556;0.278553;0.350081;0.382529;0.440983;0.449398;0.471844;0.609488;0.662450;0.670423;0.708832;0.801881;0.808801;0.863472;0.906542;0.993366;1.027482;1.021037;1.043145;1.171247;1.206512;1.195663;1.236246;1.282289;1.351556;1.308207;1.382027;1.361078;1.456029;1.463911;1.441271;1.488834;1.497378;1.493108;1.499724;1.525067;1.529860;1.557103;1.530131;1.554436;1.612029;1.585558;1.562102;1.512446;1.567307;1.516093;1.510871;1.524374;1.459347;1.474424;1.515278;1.448880;1.441915;1.404438;1.385178;1.392496;1.292470;1.313886;1.286897;1.264816;1.265737;1.210694;1.167887;1.144501;1.089825;1.077070;1.036764;0.973315;0.948000;0.910281;0.881695;0.793896;0.756279;0.743780;0.675676;0.638480;0.573120;0.538112;0.487920;0.473214;0.331512;0.311824;0.288578;0.195236;0.152504;0.095789;0.039865;0.019294;-0.040812;-0.093806;-0.140811;-0.216314;-0.267535;-0.272569;-0.346484;-0.388254;-0.441758;-0.493005;-0.627393;-0.601705;-0.619000;-0.695606;-0.720124;-0.739855;-0.798695;-0.839212;-0.852102
-1.279679;-1.274307;-1.257409;-1.244120;-1.174336;-1.222001;-1.196015;-1.169655;-1.196458;-1.142858;-1.143943;-1.062993;-1.129843;-1.079827;-1.051374;-1.083739;-1.011326;-1.060166;-1.018412;-0.945571;-1.009789;-0.921838;-0.938168;-0.926498;-0.895260;-0.844444;-0.860474;-0.862305;-0.816134;-0.866141;-0.828642;-0.767489;-0.822053;-0.771153;-0.759332;-0.767215;-0.749567;-0.765609;-0.769974;-0.715445;-0.698059;-0.724188;-0.699662;-0.705739;-0.751814;-0.765121;-0.707744;-0.705983;-0.700136;-0.698849;-0.706669;-0.737638;-0.724183;-0.749300;-0.715672;-0.731487;-0.720889;-0.711952;-0.749548;-0.741654;-0.717023;-0.721223;-0.735951;-0.715311;-0.690855;-0.661878;-0.663213;-0.694293;-0.683153;-0.645511;-0.598462;-0.623178;-0.541499;-0.534575;-0.516297;-0.465201;-0.420711;-0.419303;-0.372303;-0.337513;-0.267508;-0.272611;-0.217652;-0.194706;-0.075724;-0.078946;-0.032561;0.046012;0.117119;0.201788;0.236317;0.312026;0.346446;0.474508;0.507473;0.575838;0.614992;0.714642;0.744527;0.859375;0.922119;0.927109;1.006226;1.115304;1.143211;1.205567;1.302958;1.380717;1.392496;1.453439;1.532725;1.621077;1.616432;1.611799;1.735318;1.750810;1.719220;1.815045;1.794896;1.819737;1.818958;1.845537;1.840435;1.843470;1.828656;1.855794;1.839870;1.850330;1.833118;1.794299;1.771849;1.694368;1.702554;1.705321;1.643704;1.631898;1.573742;1.543044;1.496990;1.428648;1.393148;1.337392;1.322613;1.231452;1.184516;1.154175;1.088806;1.015299;0.977221;0.880759;0.850445;0.818440;0.741280;0.697129;0.632582;0.561966;0.546071;0.473902;0.465827;0.404097;0.301168;0.261560;0.203173;0.192965;0.093082;0.063095;0.060964;-0.062996;-0.116671;-0.142288;-0.170836;-0.198891;-0.217902;-0.290273;-0.327496;-0.422050;-0.396903;-0.438515;-0.476885;-0.545095;-0.595157;-0.654612;-0.659107;-0.650178;-0.747006;-0.770380;-0.798260;-0.819630;-0.820050;-0.848506;-0.925880;-0.959695;-0.933152;-0.998592;-0.992495;-1.076169;-1.041203;-1.061051;-1.092645;-1.117404
-1.627724;-1.686820;-1.612030;-1.612514;-1.615907;-1.630312;-1.648718;-1.630202;-1.609877;-1.550168;-1.557034;-1.556668;-1.569901;-1.500651;-1.543655;-1.481196;-1.459803;-1.425607;-1.466285;-1.452931;-1.413110;-1.397367;-1.411219;-1.403155;-1.348394;-1.381454;-1.336510;-1.370178;-1.293940;-1.228314;-1.250209;-1.168934;-1.198476;-1.116380;-1.167534;-1.176498;-1.125448;-1.096864;-1.049436;-0.992376;-0.975962;-0.919084;-0.920977;-0.908836;-0.882165;-0.822308;-0.776369;-0.729233;-0.722179;-0.622728;-0.662608;-0.626467;-0.563708;-0.514914;-0.498488;-0.379889;-0.451951;-0.409676;-0.353983;-0.306806;-0.281162;-0.252034;-0.206329;-0.157597;-0.119508;-0.071012;-0.098095;-0.010366;-0.018180;0.006451;0.019118;0.073365;0.057358;0.116154;0.070101;0.111810;0.122234;0.131316;0.126014;0.154051;0.189399;0.131321;0.103181;0.167395;0.131392;0.142421;0.090968;0.098152;0.118404;0.100744;0.108854;0.094369;0.066036;0.089049;0.042574;-0.044025;-0.055287;-0.095245;-0.064279;-0.105112;-0.099180;-0.125264;-0.100593;-0.108730;-0.138336;-0.158237;-0.155178;-0.161288;-0.189762;-0.244386;-0.162619;-0.202182;-0.119188;-0.182572;-0.139070;-0.126937;-0.114797;-0.054132;-0.055942;-0.033930;-0.055576;0.077660;0.014951;0.122409;0.132286;0.179356;0.303302;0.291959;0.347772;0.386400;0.473558;0.535629;0.624513;0.681018;0.746166;0.818622;0.876555;0.955401;1.008809;1.107625;1.160262;1.218458;1.266759;1.314947;1.395228;1.438064;1.487026;1.555403;1.597549;1.658910;1.685969;1.731120;1.741829;1.821937;1.836147;1.784103;1.809353;1.905435;1.803956;1.892320;1.846165;1.823191;1.864180;1.849120;1.799585;1.767275;1.711552;1.677829;1.611625;1.604369;1.484219;1.417319;1.367212;1.306624;1.251672;1.215618;1.100972;1.045309;0.927165;0.817630;0.736635;0.641167;0.566748;0.507048;0.419451;0.339873;0.290104;0.167625;0.096133;-0.008471;-0.058890;-0.159065;-0.316845;-0.287174;-0.399562;-0.437761;-0.494644;-0.618206;-0.641748;-0.763790
-1.103633;-1.104802;-1.110832;-1.060237;-1.056714;-0.991829;-0.992638;-0.968722;-1.007929;-0.939991;-0.896663;-0.892054;-0.863170;-0.816022;-0.784805;-0.759706;-0.744248;-0.710434;-0.640793;-0.650089;-0.571208;-0.576252;-0.561559;-0.514260;-0.478020;-0.423859;-0.377035;-0.348675;-0.318119;-0.246706;-0.197796;-0.122328;-0.142860;-0.085467;-0.028341;-0.006979;0.053289;0.122179;0.189495;0.224394;0.268904;0.340050;0.403980;0.440074;0.510175;0.532149;0.624804;0.626128;0.728620;0.782730;0.791079;0.880223;0.929778;1.009324;1.037445;1.113399;1.137638;1.170838;1.276845;1.287607;1.298415;1.399730;1.462054;1.506079;1.538127;1.587026;1.615797;1.651303;1.723700;1.714023;1.752478;1.767572;1.822605;1.807933;1.824966;1.819251;1.842004;1.864171;1.802302;1.854560;1.794412;1.797259;1.760414;1.804223;1.717170;1.756786;1.673766;1.651652;1.608292;1.607177;1.545725;1.465501;1.443534;1.404189;1.351168;1.280524;1.181911;1.175020;1.093647;1.018465;0.951084;0.907135;0.805468;0.752563;0.706823;0.656383;0.560064;0.497600;0.424845;0.398158;0.343299;0.281223;0.223772;0.201681;0.129237;0.099510;-0.002365;-0.031906;-0.100234;-0.127427;-0.189473;-0.219230;-0.276690;-0.283197;-0.367883;-0.332336;-0.423243;-0.428789;-0.459764;-0.484021;-0.526653;-0.535953;-0.554170;-0.561939;-0.605209;-0.564003;-0.642116;-0.643876;-0.627971;-0.635564;-0.683387;-0.705294;-0.752149;-0.699388;-0.712624;-0.752446;-0.763084;-0.728557;-0.745088;-0.781036;-0.770303;-0.782771;-0.758497;-0.784547;-0.798050;-0.761286;-0.774890;-0.770500;-0.769120;-0.812504;-0.848701;-0.838646;-0.861317;-0.842397;-0.852984;-0.869123;-0.889634;-0.876393;-0.915864;-0.879780;-0.918857;-0.911380;-0.917719;-0.947307;-1.008889;-0.971845;-0.984121;-1.013027;-1.012466;-0.983834;-0.992024;-1.017077;-1.044968;-1.036346;-1.044865;-1.040754;-1.089361;-1.088452;-1.125978;-1.065018;-1.107241;-1.112976;-1.169915;-1.139233;-1.090662;-1.124361;-1.160687;-1.221325;-1.191137;-1.173952
-1.277405;-1.291681;-1.183454;-1.237815;-1.163506;-1.103885;-1.069671;-1.091875;-1.064210;-0.913370;-0.842030;-0.813200;-0.788226;-0.757759;-0.644626;-0.584291;-0.531462;-0.506873;-0.422322;-0.432647;-0.338301;-0.259907;-0.227586;-0.207887;-0.125868;-0.021159;-0.005034;-0.007484;0.103011;0.164977;0.238183;0.258451;0.308427;0.323927;0.338966;0.381026;0.473805;0.462690;0.503178;0.519268;0.559308;0.591792;0.638658;0.646081;0.661384;0.657645;0.603518;0.697337;0.704223;0.726544;0.688504;0.759617;0.746868;0.791199;0.768042;0.769508;0.808138;0.783710;0.779724;0.763125;0.712100;0.807057;0.751713;0.708248;0.778486;0.797270;0.767422;0.746411;0.809621;0.721388;0.732765;0.774884;0.752604;0.814518;0.800513;0.831830;0.790661;0.819248;0.790105;0.816823;0.837146;0.864857;0.889959;0.844590;0.832621;0.858041;0.860552;0.877822;0.901252;0.985951;0.907586;0.965914;1.015366;0.929223;1.049904;1.018224;0.988845;1.097847;1.046737;1.084787;1.126938;1.060763;1.163542;1.193043;1.172253;1.121301;1.130387;1.190903;1.151829;1.146310;1.159811;1.181965;1.160732;1.209929;1.138529;1.061194;1.086824;1.127103;1.106238;1.111036;1.073278;1.099384;1.057482;0.977383;0.931599;0.912043;0.874397;0.796958;0.827599;0.754782;0.732522;0.617706;0.540249;0.521471;0.457405;0.432521;0.361287;0.291577;0.226067;0.203710;0.145673;0.019318;0.034776;-0.038250;-0.112613;-0.200156;-0.221656;-0.259135;-0.349361;-0.383755;-0.465323;-0.540785;-0.597438;-0.641422;-0.690530;-0.708042;-0.817388;-0.856100;-0.889954;-0.860511;-0.954291;-1.059254;-1.057352;-1.093970;-1.124529;-1.235553;-1.210674;-1.254189;-1.261098;-1.361962;-1.390931;-1.391709;-1.436155;-1.450383;-1.514480;-1.480511;-1.565695;-1.593029;-1.583724;-1.586161;-1.614367;-1.635472;-1.667872;-1.736512;-1.696324;-1.659861;-1.715633;-1.713793;-1.710556;-1.740875;-1.770694;-1.814346;-1.826898;-1.783135;-1.761632;-1.834912;-1.872000;-1.873143;-1.817726;-1.894192
-1.163471;-1.140322;-1.135563;-1.151769;-1.159915;-1.127518;-1.158082;-1.109297;-1.116057;-1.147206;-1.097297;-1.095939;-1.105557;-1.089084;-1.062846;-1.081317;-1.066898;-0.995870;-1.032566;-0.993869;-0.937082;-0.923999;-0.936238;-0.904382;-0.905717;-0.872440;-0.820697;-0.788681;-0.807698;-0.714192;-0.684307;-0.709195;-0.678745;-0.632488;-0.586504;-0.496254;-0.518850;-0.434219;-0.470438;-0.406862;-0.344224;-0.295508;-0.258700;-0.194273;-0.145051;-0.133123;-0.068641;0.012447;0.054292;0.120466;0.168808;0.226346;0.269719;0.369399;0.395904;0.504529;0.537117;0.577694;0.627032;0.720709;0.752308;0.858479;0.897407;0.975109;1.009532;1.095739;1.137483;1.176294;1.223901;1.265858;1.341734;1.372319;1.429224;1.423188;1.498686;1.513183;1.554691;1.526794;1.598833;1.606026;1.627232;1.668645;1.639690;1.674233;1.722154;1.671912;1.667211;1.659602;1.685868;1.594085;1.631720;1.660998;1.668515;1.588581;1.553671;1.561503;1.563379;1.496966;1.486065;1.439598;1.461847;1.418156;1.358910;1.302983;1.273690;1.256251;1.196503;1.174828;1.151128;1.080094;1.056863;1.058874;0.988039;0.920225;0.888976;0.876409;0.810974;0.802033;0.759855;0.670542;0.650186;0.606708;0.585529;0.541848;0.486504;0.441812;0.358504;0.337036;0.338375;0.260839;0.271070;0.205970;0.147913;0.125859;0.103361;0.086690;0.017547;-0.017466;-0.072826;-0.099385;-0.115544;-0.146407;-0.205942;-0.283089;-0.260996;-0.296953;-0.371631;-0.355460;-0.414704;-0.453466;-0.464153;-0.544708;-0.532579;-0.543736;-0.626317;-0.615371;-0.657094;-0.658893;-0.673592;-0.730615;-0.765847;-0.744973;-0.842892;-0.811403;-0.867019;-0.856221;-0.889195;-0.880587;-0.912949;-0.926616;-0.937476;-0.974251;-0.985847;-0.976933;-1.048249;-1.020306;-1.039869;-1.082833;-1.053523;-1.076157;-1.119019;-1.077300;-1.116172;-1.133963;-1.118485;-1.104191;-1.162174;-1.160135;-1.162941;-1.188230;-1.201362;-1.227673;-1.174523;-1.228530;-1.232795;-1.246536;-1.241238;-1.257456;-1.243974;-1.246097
-0.484867;-0.414687;-0.373428;-0.334686;-0.287793;-0.258277;-0.161390;-0.166230;-0.108122;0.009172;0.016457;0.077799;0.147309;0.180185;0.251642;0.305988;0.389223;0.413237;0.507618;0.571716;0.599683;0.675854;0.728943;0.785161;0.861224;0.923174;0.983228;0.998265;1.067836;1.110800;1.178657;1.226605;1.284586;1.303266;1.361730;1.430571;1.391421;1.475432;1.483346;1.492720;1.551838;1.491419;1.552746;1.558856;1.562120;1.597741;1.597015;1.612987;1.620164;1.611303;1.613232;1.624523;1.600798;1.640486;1.572200;1.571176;1.529759;1.572382;1.490520;1.506420;1.480141;1.503766;1.459607;1.410084;1.406441;1.356946;1.304751;1.299598;1.275994;1.199871;1.231769;1.181070;1.121168;1.077660;1.069602;1.007868;0.991387;0.940524;0.902908;0.869230;0.841766;0.813283;0.746859;0.697014;0.690010;0.651120;0.581954;0.536892;0.515027;0.481898;0.461560;0.408324;0.346958;0.306427;0.297327;0.267972;0.210983;0.201965;0.116048;0.073989;0.057073;-0.001309;-0.065292;-0.103852;-0.146162;-0.177157;-0.197610;-0.228382;-0.272088;-0.325176;-0.305050;-0.364404;-0.408533;-0.419621;-0.464149;-0.462258;-0.546520;-0.556584;-0.582763;-0.590535;-0.618162;-0.641655;-0.685436;-0.677149;-0.741401;-0.730565;-0.764491;-0.796838;-0.795114;-0.807617;-0.829165;-0.857783;-0.884197;-0.887242;-0.863165;-0.908717;-0.909357;-0.954187;-0.961850;-0.931053;-0.941395;-0.945057;-0.968716;-0.989325;-1.008444;-0.973365;-0.975771;-1.032936;-1.016243;-1.052413;-0.998801;-1.063429;-1.027276;-1.014594;-1.070122;-1.069598;-1.073874;-1.066076;-1.073331;-1.040513;-1.082389;-1.021167;-1.097903;-1.111085;-1.075437;-1.073346;-1.045007;-1.089098;-1.073438;-1.129061;-1.104200;-1.108396;-1.107257;-1.102237;-1.127155;-1.115057;-1.134512;-1.124972;-1.107038;-1.100251;-1.146470;-1.112368;-1.097045;-1.138020;-1.157842;-1.118111;-1.120610;-1.127994;-1.129477;-1.142686;-1.134629;-1.153041;-1.133984;-1.136892;-1.135393;-1.174888;-1.152958;-1.138722;-1.147123;-1.124768
-1.755790;-1.725743;-1.716773;-1.677083;-1.742517;-1.702718;-1.699195;-1.642102;-1.568504;-1.589954;-1.597227;-1.596574;-1.599022;-1.536283;-1.524637;-1.526773;-1.512460;-1.452561;-1.395901;-1.373276;-1.444425;-1.389104;-1.375110;-1.322959;-1.250514;-1.272812;-1.235187;-1.138773;-1.197405;-1.179481;-1.157822;-1.059645;-1.113322;-1.072516;-0.996959;-0.992209;-0.935284;-0.929768;-0.894434;-0.855942;-0.890198;-0.825985;-0.819724;-0.809102;-0.745858;-0.716937;-0.674747;-0.675124;-0.608609;-0.595892;-0.604430;-0.520606;-0.443284;-0.477526;-0.402769;-0.417794;-0.423584;-0.331426;-0.321664;-0.277213;-0.253548;-0.261180;-0.162536;-0.185415;-0.076292;-0.100383;-0.077857;-0.035474;-0.018380;-0.004928;0.112105;0.090311;0.101161;0.218834;0.203091;0.261085;0.261449;0.301555;0.315165;0.373025;0.366690;0.452986;0.421038;0.510944;0.532823;0.555810;0.564562;0.571566;0.607124;0.636816;0.675204;0.792685;0.784943;0.741940;0.791208;0.862300;0.893693;0.881879;0.935963;0.960068;1.001381;1.000919;1.019551;1.122000;1.076997;1.114747;1.123376;1.165103;1.152307;1.178873;1.162810;1.190320;1.238357;1.277424;1.247071;1.326583;1.307986;1.324786;1.334653;1.370150;1.307040;1.333097;1.326151;1.388233;1.405202;1.354444;1.411194;1.330365;1.334279;1.294437;1.314072;1.338376;1.333039;1.310866;1.257369;1.261037;1.334012;1.202298;1.289949;1.272212;1.234167;1.163591;1.109177;1.100021;1.147254;1.111000;1.036219;0.997772;1.032829;0.980461;0.952298;0.970856;0.902984;0.870353;0.817300;0.837731;0.736583;0.707050;0.606739;0.631809;0.548736;0.562235;0.460514;0.433873;0.377090;0.317315;0.329018;0.245614;0.202790;0.183323;0.116940;0.063925;-0.022859;-0.077164;-0.146530;-0.225376;-0.231359;-0.306015;-0.405820;-0.426727;-0.499854;-0.524022;-0.569569;-0.645581;-0.718159;-0.733610;-0.835193;-0.876393;-0.912154;-0.997854;-1.033088;-1.059854;-1.069868;-1.162960;-1.160673;-1.218993;-1.292568;-1.343459;-1.321797;-1.373930
-1.914367;-2.000239;-1.933546;-1.912217;-1.932111;-1.882933;-1.842944;-1.788207;-1.798582;-1.822030;-1.768109;-1.752598;-1.757554;-1.658962;-1.676846;-1.638699;-1.571081;-1.586572;-1.563280;-1.481116;-1.482983;-1.414951;-1.343506;-1.330132;-1.322215;-1.244665;-1.230466;-1.194988;-1.194847;-1.127083;-1.030651;-0.969651;-0.952104;-0.971398;-0.937997;-0.843953;-0.820866;-0.876760;-0.686766;-0.721214;-0.664793;-0.662429;-0.556590;-0.495369;-0.463389;-0.373012;-0.283184;-0.316297;-0.218169;-0.201739;-0.136967;-0.070917;-0.008473;0.050065;0.110240;0.121541;0.161019;0.249370;0.284877;0.376143;0.358651;0.429441;0.552952;0.534049;0.593162;0.672067;0.723724;0.760382;0.803853;0.872812;0.874065;0.899927;0.920426;0.922788;0.957547;0.978990;1.038648;1.105513;1.068024;1.188873;1.151165;1.191523;1.269356;1.209963;1.201820;1.266962;1.171413;1.250824;1.250847;1.214858;1.249882;1.226786;1.204230;1.257075;1.201658;1.212354;1.186808;1.130090;1.185629;1.160496;1.029868;1.131395;1.115970;1.092660;1.105453;1.082359;1.016412;1.001062;0.931018;0.964947;0.942425;0.891093;0.866735;0.879172;0.897682;0.873868;0.805841;0.869318;0.912152;0.840947;0.877578;0.816084;0.832365;0.800810;0.832087;0.756935;0.778909;0.745661;0.775240;0.805023;0.745529;0.733902;0.785615;0.727586;0.661933;0.731504;0.736096;0.681461;0.720172;0.680203;0.615190;0.691490;0.667114;0.585470;0.728847;0.642363;0.609333;0.643487;0.590990;0.544887;0.596513;0.521638;0.475677;0.496133;0.435703;0.410686;0.309201;0.357439;0.387314;0.287867;0.287839;0.246391;0.284495;0.227799;0.228024;0.185498;0.096688;0.014635;0.033383;-0.065290;-0.220323;-0.166759;-0.232551;-0.280847;-0.391591;-0.343977;-0.454104;-0.502496;-0.556195;-0.640587;-0.708741;-0.722643;-0.799697;-0.809144;-0.953149;-0.953948;-1.025306;-1.030629;-1.114788;-1.074330;-1.163083;-1.219324;-1.289291;-1.314213;-1.363825;-1.429718;-1.530802;-1.482167;-1.593389;-1.616629
-2.252878;-2.186801;-2.101204;-2.113739;-2.048380;-2.051170;-1.969961;-1.880557;-1.833035;-1.704684;-1.664989;-1.687220;-1.568749;-1.526526;-1.508126;-1.432660;-1.448747;-1.324931;-1.153874;-1.117257;-0.973693;-1.042811;-0.915109;-0.840840;-0.667449;-0.661063;-0.579765;-0.545009;-0.506332;-0.408655;-0.352906;-0.217644;-0.201530;-0.084628;-0.038623;0.038147;0.070329;0.220682;0.165155;0.307924;0.384046;0.452583;0.470413;0.574211;0.623409;0.638914;0.701232;0.800802;0.895999;0.936721;0.966719;0.967023;0.998502;1.088388;1.123831;1.240647;1.152611;1.254140;1.305162;1.279281;1.390302;1.417803;1.391218;1.486600;1.508745;1.442667;1.530457;1.593257;1.491057;1.500998;1.573918;1.601425;1.628400;1.600070;1.482493;1.547512;1.495108;1.517289;1.529047;1.377676;1.366248;1.385709;1.408634;1.266108;1.254314;1.265988;1.196167;1.111008;1.064271;1.032831;0.811529;0.834535;0.747926;0.648047;0.553323;0.545022;0.437944;0.442184;0.290684;0.250451;0.143209;0.225895;0.051452;-0.045825;-0.075802;-0.144000;-0.237912;-0.274857;-0.270062;-0.284837;-0.415563;-0.462416;-0.522540;-0.525917;-0.490046;-0.634870;-0.608233;-0.643897;-0.569230;-0.620175;-0.634857;-0.580791;-0.634553;-0.595530;-0.623009;-0.601580;-0.604516;-0.528324;-0.528189;-0.495210;-0.452672;-0.395450;-0.343349;-0.328640;-0.239923;-0.180724;-0.193517;-0.117713;-0.079074;-0.007980;0.070483;0.156725;0.172829;0.231660;0.296197;0.313581;0.371788;0.408795;0.497554;0.489210;0.537264;0.611858;0.548739;0.671558;0.728651;0.774374;0.678796;0.719774;0.663282;0.658546;0.500839;0.610235;0.601652;0.570281;0.580480;0.569791;0.481808;0.526048;0.462985;0.340750;0.378711;0.282875;0.086549;0.112326;0.039110;-0.017332;-0.081638;-0.152566;-0.261243;-0.329835;-0.433369;-0.521206;-0.616671;-0.706197;-0.770334;-0.872037;-0.931485;-1.078488;-1.189837;-1.261909;-1.253323;-1.368158;-1.371798;-1.514047;-1.672197;-1.691385;-1.673236;-1.712657;-1.873244;-1.884975
-1.790410;-1.801173;-1.793582;-1.764793;-1.720652;-1.713983;-1.763007;-1.661387;-1.658019;-1.611097;-1.654343;-1.613654;-1.582048;-1.564087;-1.566142;-1.526386;-1.500661;-1.514178;-1.416984;-1.409744;-1.389821;-1.303574;-1.337675;-1.292923;-1.274775;-1.243708;-1.152140;-1.179659;-1.059706;-1.074866;-0.980758;-0.933741;-0.911939;-0.875719;-0.863585;-0.704930;-0.729297;-0.659066;-0.579028;-0.540011;-0.478579;-0.420973;-0.324676;-0.220758;-0.219929;-0.102374;-0.048977;-0.019029;0.079915;0.195058;0.151781;0.208164;0.365237;0.407509;0.536101;0.564767;0.665546;0.741877;0.794616;0.895074;0.963712;1.014819;1.097838;1.177515;1.243995;1.281246;1.297924;1.405923;1.473228;1.446573;1.521656;1.591164;1.597244;1.616132;1.708036;1.665674;1.795449;1.764945;1.729412;1.762463;1.725537;1.774468;1.705880;1.751233;1.693446;1.727944;1.684524;1.592487;1.634396;1.619602;1.485303;1.464574;1.426734;1.381805;1.385520;1.368072;1.316084;1.261504;1.148456;1.116912;1.089546;0.988750;0.892000;0.841385;0.788702;0.770766;0.691900;0.638050;0.547522;0.541796;0.513162;0.407221;0.377215;0.303408;0.286578;0.269294;0.153619;0.210386;0.126124;0.107272;0.147575;0.032196;0.002818;0.009723;-0.057266;0.053957;0.067564;-0.010247;-0.036992;-0.030773;-0.003512;-0.059540;-0.012154;0.057622;-0.056270;-0.059758;-0.053584;-0.004749;0.021325;0.017859;0.026676;0.077414;0.024666;0.053321;0.107586;0.128998;0.154801;0.052349;0.163063;0.146493;0.195723;0.136591;0.141688;0.127646;0.161634;0.122064;0.130849;0.161402;0.161177;0.167123;0.107705;0.104508;0.045420;-0.001341;0.028848;0.039382;-0.026998;-0.103983;-0.068444;-0.098678;-0.192583;-0.158244;-0.247418;-0.324127;-0.295543;-0.339379;-0.375087;-0.466302;-0.460012;-0.528438;-0.595018;-0.628122;-0.729781;-0.671430;-0.806392;-0.736121;-0.856540;-0.909921;-0.986283;-0.969509;-1.104856;-1.080594;-1.096163;-1.152259;-1.252380;-1.292643;-1.212842;-1.295507;-1.370275;-1.380932
-0.724144;-0.620784;-0.596940;-0.503164;-0.460093;-0.412158;-0.345645;-0.314588;-0.185840;-0.134153;-0.061227;0.056978;0.047419;0.143874;0.223909;0.312331;0.366232;0.511608;0.568812;0.592447;0.722545;0.790645;0.863961;0.922303;0.970748;1.078594;1.136854;1.201556;1.211065;1.366589;1.418905;1.430200;1.462349;1.515675;1.525386;1.546886;1.573201;1.668385;1.634468;1.676472;1.727276;1.702074;1.729664;1.734825;1.742912;1.666855;1.758244;1.702196;1.658245;1.710100;1.709563;1.654115;1.626415;1.558849;1.514791;1.435003;1.461904;1.424058;1.397997;1.387195;1.311163;1.234970;1.247162;1.139823;1.139800;1.055803;1.016885;1.000312;0.965577;0.900573;0.814903;0.805022;0.746162;0.694421;0.638463;0.638182;0.586982;0.570573;0.510753;0.450925;0.419732;0.423131;0.384971;0.303208;0.291175;0.257147;0.297381;0.218662;0.217424;0.182791;0.215720;0.213367;0.181987;0.144013;0.145163;0.062938;0.106508;0.109774;0.099788;0.058768;0.034327;0.053849;0.049575;0.039116;0.014030;0.045568;0.028020;0.032395;0.017212;0.012332;0.026674;-0.077244;-0.070635;0.001997;-0.079991;-0.071321;-0.113506;-0.126841;-0.074385;-0.109496;-0.118305;-0.131478;-0.117164;-0.194537;-0.170870;-0.238951;-0.278767;-0.281573;-0.301876;-0.310327;-0.330087;-0.351128;-0.349288;-0.391630;-0.442341;-0.453686;-0.493075;-0.512232;-0.501980;-0.577905;-0.618651;-0.611172;-0.685410;-0.727260;-0.695991;-0.761597;-0.765351;-0.826480;-0.808580;-0.883573;-0.864755;-0.915929;-0.928160;-0.985143;-0.964287;-1.028357;-1.063083;-1.100087;-1.026453;-1.119304;-1.155045;-1.181347;-1.154282;-1.171701;-1.182098;-1.153322;-1.222313;-1.262737;-1.277336;-1.303605;-1.306566;-1.281027;-1.311283;-1.378840;-1.320695;-1.317301;-1.356633;-1.351917;-1.384096;-1.354600;-1.362332;-1.415394;-1.355085;-1.384056;-1.410531;-1.410907;-1.426597;-1.367329;-1.405209;-1.478719;-1.428459;-1.452767;-1.412882;-1.481173;-1.455640;-1.480872;-1.413716;-1.460099;-1.466740;-1.495639
-2.138870;-2.197066;-2.108185;-1.999446;-2.033006;-1.980206;-1.931805;-1.913811;-1.912352;-1.822112;-1.820043;-1.670459;-1.695231;-1.644652;-1.697251;-1.513809;-1.531844;-1.435825;-1.329637;-1.404384;-1.314328;-1.232273;-1.209518;-1.114915;-1.139654;-1.025610;-1.012345;-0.950547;-0.804582;-0.815050;-0.720049;-0.652543;-0.542431;-0.561657;-0.517820;-0.374983;-0.340240;-0.278761;-0.273156;-0.093212;-0.047660;-0.019191;0.137767;0.109827;0.133284;0.284481;0.395683;0.403799;0.444210;0.429880;0.540232;0.610082;0.728206;0.726934;0.797679;0.850784;0.963173;0.997826;1.019912;1.088117;1.194359;1.233065;1.257565;1.234020;1.305496;1.449476;1.392277;1.458285;1.454170;1.493637;1.497578;1.537613;1.532570;1.678983;1.593310;1.685016;1.610962;1.562961;1.627138;1.587891;1.648117;1.592266;1.604082;1.517560;1.478763;1.509329;1.408183;1.450673;1.344172;1.247199;1.242437;1.322219;1.120774;1.120374;1.056648;0.971460;0.994305;0.802988;0.854322;0.723776;0.706064;0.678954;0.542929;0.553945;0.449971;0.456855;0.382804;0.318427;0.276383;0.231075;0.120366;0.122705;0.127252;-0.003643;0.032802;-0.014881;-0.047116;-0.185226;-0.077792;-0.097119;-0.223133;-0.152334;-0.199690;-0.128068;-0.088988;-0.106054;-0.189407;-0.137441;-0.137847;-0.149822;-0.076899;-0.063302;-0.105397;-0.098310;-0.050305;0.056660;-0.001680;0.004870;0.042891;0.137851;0.120519;0.123246;0.172164;0.297349;0.215456;0.337540;0.295895;0.257164;0.329824;0.333958;0.357164;0.321895;0.418396;0.420169;0.338890;0.336383;0.352944;0.412771;0.421140;0.421866;0.302998;0.263074;0.362938;0.319100;0.239533;0.237460;0.165030;0.181587;0.121164;0.147457;0.059201;0.068165;-0.089318;-0.091473;-0.185061;-0.250474;-0.331815;-0.493013;-0.365343;-0.589724;-0.636289;-0.562685;-0.704492;-0.715576;-0.861281;-0.954139;-0.957665;-1.090761;-1.168243;-1.200112;-1.235665;-1.306020;-1.353708;-1.324421;-1.419928;-1.462244;-1.568255;-1.575890;-1.694981;-1.709592
-0.947453;-0.901458;-0.815102;-0.821381;-0.701128;-0.720939;-0.626864;-0.537546;-0.468935;-0.363389;-0.358781;-0.294972;-0.237313;-0.203450;-0.081169;0.007580;0.032464;0.137304;0.263724;0.292679;0.381730;0.428483;0.542957;0.584185;0.662629;0.766453;0.871051;0.854463;0.918605;0.988861;1.040540;1.113440;1.170942;1.256849;1.331800;1.317042;1.425335;1.458869;1.509541;1.504768;1.525473;1.617290;1.563673;1.696756;1.681013;1.663822;1.649393;1.682679;1.709138;1.749670;1.726266;1.710140;1.760735;1.720333;1.648603;1.726591;1.701493;1.734631;1.680121;1.669318;1.618726;1.623610;1.590619;1.528985;1.516191;1.492826;1.440254;1.438551;1.441706;1.434274;1.327277;1.306824;1.289079;1.209917;1.215127;1.158102;1.075710;1.046892;1.008116;0.957803;0.894714;0.903458;0.786741;0.771095;0.737226;0.630591;0.635163;0.567622;0.525314;0.471040;0.384146;0.258952;0.239751;0.212473;0.222599;0.127510;0.107774;0.036178;-0.064783;-0.083185;-0.132109;-0.183519;-0.263023;-0.341112;-0.294211;-0.428941;-0.451180;-0.480548;-0.545105;-0.553499;-0.608660;-0.622404;-0.703658;-0.641184;-0.739741;-0.703394;-0.781493;-0.828290;-0.846468;-0.826516;-0.806393;-0.875690;-0.876652;-0.903887;-0.903715;-0.963223;-0.886385;-0.889600;-0.934117;-0.927295;-0.902242;-0.879752;-0.848060;-0.912724;-0.882893;-0.884326;-0.873674;-0.793849;-0.847823;-0.867451;-0.814841;-0.772548;-0.781046;-0.741243;-0.739642;-0.727893;-0.732054;-0.664694;-0.691816;-0.656115;-0.668221;-0.625394;-0.674479;-0.562576;-0.668210;-0.623764;-0.586841;-0.610584;-0.660044;-0.602342;-0.639728;-0.654041;-0.587658;-0.639641;-0.690945;-0.672451;-0.681945;-0.661882;-0.748786;-0.658911;-0.675665;-0.746717;-0.787337;-0.820891;-0.875218;-0.872717;-0.873596;-0.919244;-0.949466;-0.934669;-0.971225;-0.962725;-1.057061;-1.030286;-1.077873;-1.109772;-1.148434;-1.146985;-1.193934;-1.150076;-1.242531;-1.262072;-1.281759;-1.274226;-1.327995;-1.338937;-1.410556;-1.353500;-1.418410;-1.395504
-1.581959;-1.512568;-1.541758;-1.491878;-1.497850;-1.367222;-1.406237;-1.323813;-1.345554;-1.326511;-1.264454;-1.221190;-1.255535;-1.120768;-1.168307;-1.102388;-1.043517;-1.047186;-1.017923;-0.997302;-0.910910;-0.867329;-0.883083;-0.854887;-0.825996;-0.806464;-0.792585;-0.720651;-0.718493;-0.689244;-0.602081;-0.622092;-0.565763;-0.482037;-0.462230;-0.404000;-0.373036;-0.378601;-0.330697;-0.370747;-0.271368;-0.287045;-0.225430;-0.245835;-0.211244;-0.201178;-0.111885;-0.139689;-0.111080;-0.106289;-0.090552;0.016434;-0.003426;0.014648;0.030786;0.110085;0.060396;0.098300;0.075199;0.109348;0.205154;0.165003;0.195782;0.190858;0.225291;0.188063;0.301357;0.266903;0.312353;0.320507;0.362541;0.400162;0.451202;0.456224;0.458948;0.521379;0.500847;0.576304;0.602473;0.624463;0.680617;0.710775;0.745556;0.714149;0.717069;0.829957;0.780160;0.860704;0.890845;0.979068;0.975985;0.962206;1.029607;1.078218;1.095562;1.160094;1.100979;1.219162;1.201355;1.275399;1.333839;1.319377;1.321693;1.379750;1.434463;1.425602;1.482380;1.476254;1.523956;1.482966;1.527236;1.556320;1.507020;1.527480;1.550652;1.539850;1.591481;1.553462;1.594938;1.588659;1.484470;1.472224;1.487589;1.540033;1.428437;1.336026;1.352525;1.381372;1.369718;1.263449;1.195995;1.203798;1.207857;1.166720;1.106152;1.037789;0.959213;0.969078;0.845346;0.807074;0.708133;0.754988;0.671308;0.524964;0.552467;0.461582;0.422949;0.359271;0.306426;0.240954;0.127043;0.120678;0.069517;0.051461;-0.096244;-0.139214;-0.186053;-0.223984;-0.241167;-0.323299;-0.404939;-0.369617;-0.429868;-0.512435;-0.548859;-0.573002;-0.675167;-0.703028;-0.751474;-0.787810;-0.802094;-0.906745;-0.959507;-0.956850;-0.993767;-1.040679;-1.072795;-1.131114;-1.152723;-1.186639;-1.189603;-1.218534;-1.205101;-1.304326;-1.296242;-1.389970;-1.376401;-1.420636;-1.480300;-1.485042;-1.522675;-1.496739;-1.537264;-1.496904;-1.582639;-1.584452;-1.637563;-1.587491;-1.630015;-1.641624
-1.375566;-1.382403;-1.370269;-1.326365;-1.335227;-1.321968;-1.285307;-1.270044;-1.291986;-1.225683;-1.232890;-1.206500;-1.183923;-1.164403;-1.124388;-1.131962;-1.081772;-1.098297;-1.054343;-1.047054;-0.988923;-0.960396;-0.945789;-0.870605;-0.834712;-0.839660;-0.831890;-0.744679;-0.705762;-0.685795;-0.672236;-0.646351;-0.573733;-0.535052;-0.478182;-0.458974;-0.431170;-0.317651;-0.340374;-0.298748;-0.260878;-0.159194;-0.154275;-0.137629;-0.088791;-0.024039;0.030671;0.064571;0.147928;0.208615;0.273718;0.286034;0.390788;0.439952;0.518196;0.524607;0.521059;0.640561;0.709883;0.741545;0.776400;0.891880;0.925014;0.935284;0.971960;1.031080;1.074373;1.183912;1.197949;1.247613;1.235352;1.310766;1.298568;1.372412;1.369532;1.457433;1.453407;1.474253;1.500118;1.538864;1.548241;1.558518;1.536222;1.553881;1.551603;1.574738;1.549573;1.578105;1.607325;1.587576;1.580250;1.527690;1.548015;1.554689;1.535014;1.488173;1.453693;1.428411;1.424722;1.410009;1.385298;1.352694;1.332523;1.249065;1.282496;1.256155;1.168131;1.198400;1.167230;1.106259;1.083443;1.018923;0.988093;0.981265;0.973013;0.894023;0.868694;0.825650;0.754216;0.776034;0.748116;0.692454;0.675980;0.595030;0.581280;0.515108;0.520443;0.468968;0.421683;0.388000;0.349945;0.260215;0.261769;0.224682;0.169128;0.137981;0.139590;0.042785;0.014150;-0.041825;-0.075430;-0.109450;-0.075370;-0.132785;-0.179315;-0.241514;-0.209344;-0.292027;-0.328979;-0.406724;-0.407363;-0.431257;-0.491954;-0.498994;-0.533257;-0.544817;-0.504604;-0.586556;-0.628951;-0.706826;-0.689519;-0.713230;-0.771670;-0.772516;-0.800674;-0.779868;-0.857616;-0.812010;-0.885037;-0.885361;-0.933788;-0.925785;-0.947095;-1.004075;-1.046910;-0.998469;-1.013763;-1.039824;-1.086405;-1.040092;-1.105471;-1.155734;-1.192258;-1.172036;-1.125707;-1.232003;-1.233376;-1.250977;-1.282658;-1.240941;-1.302188;-1.295307;-1.294956;-1.338648;-1.333616;-1.310343;-1.315126;-1.363888;-1.355202;-1.382338
-1.201086;-1.196263;-1.170675;-1.189535;-1.196929;-1.198902;-1.205802;-1.236010;-1.194741;-1.210509;-1.184570;-1.194575;-1.175091;-1.182316;-1.161997;-1.185597;-1.164196;-1.174313;-1.139496;-1.133272;-1.131693;-1.127297;-1.101024;-1.103481;-1.141347;-1.118043;-1.109653;-1.129017;-1.082981;-1.073154;-1.100861;-1.094235;-1.080126;-1.062356;-1.075052;-1.081080;-1.050671;-1.026179;-1.074181;-1.066356;-1.065052;-1.077147;-1.034419;-1.032043;-1.065322;-1.047421;-1.031414;-0.990477;-1.044723;-1.014936;-1.001314;-0.978661;-0.969157;-1.002715;-0.998801;-0.936956;-0.977244;-0.946588;-0.935046;-0.952572;-0.910000;-0.916735;-0.849764;-0.836998;-0.851231;-0.857531;-0.780630;-0.787180;-0.770578;-0.702546;-0.742340;-0.673216;-0.677656;-0.690400;-0.619152;-0.612846;-0.553610;-0.512973;-0.509926;-0.442630;-0.430805;-0.393972;-0.312861;-0.291138;-0.254702;-0.195982;-0.135745;-0.094322;-0.074344;-0.026457;0.046299;0.065561;0.202467;0.207402;0.273914;0.309687;0.362236;0.431283;0.503047;0.549294;0.590687;0.684991;0.748274;0.722838;0.861617;0.884843;0.964063;0.963400;1.055464;1.106193;1.121706;1.175574;1.254787;1.268499;1.323176;1.348427;1.360409;1.395734;1.406112;1.469760;1.450859;1.515128;1.542866;1.505126;1.535868;1.561823;1.574499;1.585812;1.586028;1.585405;1.604978;1.573438;1.606336;1.579337;1.591602;1.554800;1.529346;1.525013;1.530249;1.487018;1.528042;1.504916;1.418783;1.389103;1.449381;1.377753;1.394963;1.326545;1.310796;1.269391;1.273390;1.216267;1.181231;1.157996;1.129345;1.084956;1.000490;0.994485;0.996403;0.935872;0.908428;0.880038;0.816429;0.762414;0.728718;0.710046;0.672993;0.606367;0.571109;0.508203;0.455582;0.445705;0.358136;0.312684;0.291378;0.243591;0.199405;0.128997;0.077154;0.083314;-0.005464;-0.024754;-0.130915;-0.115807;-0.186568;-0.252791;-0.307472;-0.331542;-0.362345;-0.404812;-0.464708;-0.480743;-0.554554;-0.566357;-0.584429;-0.607867;-0.692205;-0.684507;-0.745749;-0.745545
-1.323600;-1.262021;-1.225447;-1.105092;-1.122154;-0.997600;-0.902988;-0.816096;-0.742263;-0.704092;-0.554251;-0.519593;-0.413543;-0.259807;-0.189134;-0.133450;-0.101255;0.056307;0.056358;0.145167;0.255423;0.362443;0.467035;0.584948;0.590894;0.746258;0.765345;0.890493;0.887634;1.009725;1.035622;1.147438;1.191365;1.243366;1.349092;1.325681;1.432555;1.422378;1.486839;1.499201;1.544058;1.578489;1.613700;1.587113;1.594359;1.666015;1.678951;1.601060;1.657906;1.605142;1.620858;1.603164;1.595643;1.545218;1.519375;1.519881;1.474775;1.438982;1.423097;1.415864;1.404948;1.288322;1.237205;1.201029;1.215625;1.167093;1.147211;1.102858;1.067482;0.976091;0.965712;0.927316;0.928154;0.852499;0.758178;0.793246;0.762209;0.800848;0.672670;0.661578;0.653585;0.572742;0.600873;0.556798;0.478869;0.572535;0.518632;0.417238;0.437540;0.388034;0.362951;0.402272;0.339880;0.313319;0.314991;0.324966;0.246146;0.294407;0.227449;0.211690;0.265783;0.268618;0.217295;0.220741;0.153679;0.235838;0.143393;0.174379;0.139696;0.122667;0.122290;0.150501;0.081494;0.097436;0.070616;0.081865;0.102901;0.098891;0.056300;0.078185;0.086800;0.047202;0.037680;0.078421;-0.071743;-0.011296;-0.043094;-0.033940;-0.068374;-0.092297;-0.141957;-0.084708;-0.160087;-0.197942;-0.185447;-0.257119;-0.202644;-0.275146;-0.235871;-0.284868;-0.301710;-0.375625;-0.347491;-0.380189;-0.447009;-0.419269;-0.455883;-0.499315;-0.542110;-0.581136;-0.588617;-0.609757;-0.574225;-0.661828;-0.660321;-0.703620;-0.667141;-0.732874;-0.840981;-0.797233;-0.859092;-0.868321;-0.908970;-0.960022;-0.966504;-1.018005;-0.990155;-1.022286;-1.016221;-1.106192;-1.149256;-1.150067;-1.153997;-1.249110;-1.295285;-1.291283;-1.271079;-1.398868;-1.299286;-1.377442;-1.523878;-1.452752;-1.451736;-1.597374;-1.550925;-1.646328;-1.637052;-1.640674;-1.708650;-1.731766;-1.705003;-1.825591;-1.753271;-1.787988;-1.836843;-1.790361;-1.876185;-1.927666;-1.937439;-1.894909
-2.171113;-2.121021;-2.056746;-2.031079;-2.043695;-1.979270;-1.973888;-1.863990;-1.904788;-1.889337;-1.850089;-1.751651;-1.714885;-1.715983;-1.612660;-1.494810;-1.541713;-1.526805;-1.367833;-1.325533;-1.392855;-1.265175;-1.139054;-1.185358;-1.092966;-1.037434;-0.925451;-0.949013;-0.846685;-0.894473;-0.726349;-0.691682;-0.574425;-0.663076;-0.439557;-0.467368;-0.372143;-0.315793;-0.178561;-0.118503;-0.150559;-0.042794;0.078528;0.126530;0.084992;0.197302;0.295391;0.373873;0.336463;0.418044;0.496746;0.522018;0.584418;0.715780;0.748247;0.782916;0.800457;0.911019;0.966065;1.010886;1.066401;1.142448;1.211637;1.226242;1.293752;1.320253;1.293941;1.378489;1.428935;1.481330;1.467327;1.428573;1.449399;1.556510;1.609610;1.507058;1.497771;1.542352;1.571228;1.583145;1.555988;1.607221;1.508488;1.509411;1.557765;1.421328;1.394464;1.468943;1.346498;1.358763;1.209488;1.266409;1.239617;1.202686;1.152516;1.089518;1.013032;0.938760;0.959956;0.793634;0.771503;0.741745;0.728396;0.568086;0.583084;0.488092;0.478123;0.449507;0.411789;0.388877;0.266251;0.249586;0.314641;0.228313;0.164939;0.163126;0.156854;0.135932;0.004220;0.086249;0.010011;0.083694;-0.023701;0.034350;0.025536;0.018897;0.043277;0.021862;0.016041;-0.018908;-0.061164;0.015306;0.012200;0.049756;0.044397;0.126437;0.173197;0.118412;0.158840;0.126359;0.161583;0.233100;0.209657;0.315657;0.291088;0.389135;0.246044;0.299378;0.304659;0.346750;0.319377;0.353849;0.405334;0.414267;0.307957;0.288672;0.441543;0.302561;0.342691;0.266027;0.264906;0.242338;0.275329;0.172364;0.184955;0.155392;0.054698;0.154880;0.001194;-0.028642;-0.129707;-0.150355;-0.182066;-0.197335;-0.291314;-0.322724;-0.416735;-0.493807;-0.495582;-0.587170;-0.621563;-0.685936;-0.791666;-0.830966;-0.955091;-1.028480;-1.005816;-1.077217;-1.201115;-1.184162;-1.295881;-1.246213;-1.305119;-1.499196;-1.550541;-1.620111;-1.593484;-1.669077;-1.674485;-1.662338
-1.833412;-1.666276;-1.658647;-1.596597;-1.520544;-1.335923;-1.247547;-1.205157;-1.092379;-1.015318;-0.941472;-0.825540;-0.691811;-0.597208;-0.460352;-0.327300;-0.226321;-0.073749;0.006069;0.118855;0.175798;0.374956;0.390587;0.541521;0.524497;0.761811;0.781865;0.922175;0.952280;0.994494;1.097694;1.190723;1.273416;1.393534;1.401176;1.393987;1.519259;1.495217;1.686614;1.552821;1.606763;1.584975;1.595343;1.645066;1.627559;1.718317;1.532245;1.640820;1.507001;1.442813;1.410398;1.356258;1.345975;1.387448;1.200682;1.206709;1.151057;1.119293;1.001820;0.900174;0.820547;0.792693;0.760830;0.520391;0.422576;0.485549;0.416265;0.224642;0.155332;0.252349;0.014198;-0.106688;-0.123162;-0.231073;-0.391793;-0.312392;-0.388049;-0.455680;-0.563651;-0.621582;-0.584789;-0.716758;-0.853016;-0.776814;-0.752435;-0.726251;-0.939579;-1.001391;-1.033375;-1.060567;-1.097944;-1.093730;-1.105115;-1.195582;-1.151600;-1.211397;-1.252710;-1.206922;-1.139985;-1.190174;-1.208396;-1.256683;-1.215216;-1.206305;-1.173254;-1.232083;-1.100534;-1.159935;-1.097470;-1.089232;-1.051568;-1.043612;-1.054365;-1.013926;-1.023166;-0.895260;-0.831868;-0.879026;-0.760134;-0.669651;-0.637520;-0.649772;-0.594574;-0.594975;-0.473371;-0.396047;-0.402702;-0.204536;-0.184070;-0.130813;-0.149825;0.017701;0.081158;0.040882;0.164430;0.289390;0.288819;0.454682;0.483650;0.580295;0.605511;0.744090;0.723722;0.778144;0.842345;0.867511;0.993260;0.962731;1.049073;1.088493;1.012712;1.096828;1.202318;1.172145;1.154752;1.216057;1.178319;1.224992;1.199043;1.172192;1.136552;1.095389;1.047486;1.052713;1.037092;0.946728;0.913054;0.828832;0.827778;0.767805;0.638608;0.599229;0.509710;0.427459;0.310514;0.227017;0.238753;0.033773;0.017291;-0.147258;-0.225469;-0.300215;-0.351494;-0.553240;-0.663416;-0.599032;-0.797073;-0.813096;-1.031698;-1.156610;-1.177092;-1.217827;-1.297954;-1.393252;-1.477036;-1.520481;-1.606899;-1.730761;-1.820657;-1.876264
-2.009048;-2.072772;-2.074280;-1.975345;-1.985771;-1.988845;-1.938954;-1.902887;-1.902570;-1.866905;-1.876606;-1.800790;-1.739340;-1.777107;-1.746771;-1.744837;-1.669489;-1.635408;-1.641584;-1.583934;-1.495109;-1.553026;-1.509645;-1.480463;-1.469192;-1.382077;-1.289607;-1.290377;-1.277292;-1.263947;-1.136912;-1.162541;-1.114063;-1.067443;-1.067027;-1.004751;-0.903305;-0.943063;-0.879256;-0.784527;-0.783176;-0.741547;-0.673475;-0.574827;-0.657988;-0.464313;-0.450597;-0.426745;-0.470612;-0.360548;-0.227448;-0.190443;-0.206486;-0.144352;-0.079563;-0.011193;0.011982;0.021863;0.151539;0.167387;0.271181;0.203266;0.280502;0.356586;0.454175;0.431158;0.464642;0.506101;0.556079;0.636162;0.610142;0.634812;0.699501;0.690012;0.738684;0.812789;0.887652;0.835148;0.830730;0.862250;0.865060;0.943098;0.938066;1.004827;0.963239;0.979630;0.922863;0.958493;1.038589;1.033904;1.009398;0.967581;0.932408;0.988206;0.943415;0.944960;0.920285;0.909866;0.994214;0.931981;0.951049;0.912187;0.896385;0.933824;0.874872;0.797708;0.879534;0.896670;0.843365;0.836160;0.803420;0.813231;0.820230;0.758529;0.787991;0.804212;0.725813;0.806338;0.755269;0.786665;0.749180;0.768192;0.798065;0.719142;0.775401;0.820352;0.846218;0.795034;0.873078;0.818994;0.818950;0.917870;0.879334;0.826253;0.862418;0.920386;0.983324;0.894919;0.912105;0.869217;0.905755;0.925991;0.901459;0.986191;1.010122;0.944129;0.913900;0.977943;1.006240;0.990283;0.930352;0.879124;0.965473;0.914810;0.854691;0.877649;0.841876;0.756612;0.775750;0.748313;0.671862;0.629859;0.693407;0.619575;0.556248;0.572472;0.425611;0.399125;0.338341;0.282351;0.270846;0.173123;0.148993;0.093872;0.001093;-0.065978;-0.144956;-0.131177;-0.273103;-0.311694;-0.432217;-0.415606;-0.592715;-0.629735;-0.654361;-0.701114;-0.758523;-0.860159;-0.929538;-1.000543;-1.049416;-1.122514;-1.204634;-1.245450;-1.334258;-1.414121;-1.494896;-1.479509;-1.517687;-1.585671
-0.659518;-0.574558;-0.510987;-0.480511;-0.417425;-0.374263;-0.351949;-0.270883;-0.228439;-0.151873;-0.044686;-0.047574;0.007342;0.097413;0.128284;0.195660;0.288386;0.384306;0.464828;0.528461;0.534390;0.633810;0.716765;0.793720;0.815225;0.864889;0.915326;1.012195;1.064605;1.127615;1.148070;1.244559;1.302667;1.308374;1.353527;1.408442;1.449707;1.486261;1.520089;1.586215;1.582261;1.604970;1.627971;1.623605;1.630901;1.659233;1.676889;1.686600;1.740859;1.682026;1.654163;1.647171;1.686887;1.649576;1.673112;1.630864;1.658779;1.607870;1.608481;1.607766;1.584536;1.547615;1.471997;1.476319;1.419243;1.408307;1.360556;1.340292;1.283614;1.314619;1.225927;1.195089;1.186139;1.125973;1.106258;1.040124;1.027687;0.986052;0.935756;0.890696;0.802143;0.819204;0.725374;0.740409;0.657424;0.589878;0.586972;0.493880;0.466976;0.429483;0.395557;0.332234;0.306498;0.257350;0.167920;0.133275;0.051197;0.076681;-0.034381;-0.042123;-0.107578;-0.169149;-0.171938;-0.183589;-0.211277;-0.338255;-0.355801;-0.407408;-0.409970;-0.495877;-0.525066;-0.537031;-0.555233;-0.596826;-0.638852;-0.663113;-0.708242;-0.725754;-0.729555;-0.710513;-0.752782;-0.801411;-0.827880;-0.818668;-0.837092;-0.879564;-0.898654;-0.850388;-0.895943;-0.894595;-0.894302;-0.916748;-0.923901;-0.912478;-0.894042;-0.939913;-0.936311;-0.925361;-0.946239;-0.902346;-0.942530;-0.921380;-0.910239;-0.924073;-0.902825;-0.873505;-0.923550;-0.904540;-0.874264;-0.883161;-0.850222;-0.930384;-0.886294;-0.908831;-0.887179;-0.926430;-0.867027;-0.866478;-0.904643;-0.921481;-0.903043;-0.890158;-0.887373;-0.880866;-0.914407;-0.889554;-0.897746;-0.919302;-0.902510;-0.943862;-0.962110;-0.955771;-0.938805;-0.958012;-0.940057;-0.973721;-0.969565;-1.020183;-1.010419;-1.041034;-1.042132;-1.042379;-1.033848;-1.074716;-1.071437;-1.059622;-1.050882;-1.102052;-1.089298;-1.141498;-1.113263;-1.166707;-1.135306;-1.145734;-1.158510;-1.181283;-1.172822;-1.206012;-1.204434;-1.202088
-1.654287;-1.595794;-1.544036;-1.549665;-1.543466;-1.577641;-1.525722;-1.528822;-1.530975;-1.464573;-1.503120;-1.492850;-1.455175;-1.412359;-1.429419;-1.361022;-1.386031;-1.331875;-1.314298;-1.323727;-1.310279;-1.253188;-1.288760;-1.286418;-1.187393;-1.130887;-1.130748;-1.100813;-1.087835;-1.044326;-1.029127;-0.992621;-0.975698;-0.833861;-0.837657;-0.811125;-0.743538;-0.700734;-0.661485;-0.605810;-0.546402;-0.488855;-0.450195;-0.384882;-0.339089;-0.328899;-0.213941;-0.116589;-0.082694;0.038603;0.020679;0.101171;0.198863;0.244137;0.290498;0.384460;0.422909;0.508295;0.577802;0.657965;0.706014;0.780710;0.801427;0.937395;0.993707;1.054932;1.114788;1.139657;1.223684;1.214886;1.315116;1.296551;1.395785;1.425558;1.464446;1.483668;1.574979;1.546586;1.581048;1.618354;1.610235;1.597201;1.657148;1.635142;1.700801;1.661652;1.630055;1.620089;1.683971;1.599086;1.613964;1.570101;1.562788;1.490662;1.534468;1.447351;1.452202;1.417610;1.389336;1.323274;1.334982;1.246317;1.173862;1.224882;1.135817;1.189729;1.044425;1.088642;1.055355;0.952074;0.908841;0.844253;0.835440;0.814509;0.789894;0.756292;0.725180;0.671777;0.657176;0.578801;0.538746;0.562359;0.498000;0.468502;0.417092;0.445841;0.361689;0.331968;0.322076;0.342848;0.305905;0.292672;0.280047;0.208686;0.205215;0.187612;0.172233;0.157756;0.140669;0.162517;0.112612;0.129343;0.090287;0.088320;0.065168;0.007217;0.038477;-0.013707;-0.013540;-0.016874;0.026939;-0.009418;0.001465;-0.120775;-0.060685;-0.131500;-0.103194;-0.161770;-0.179938;-0.207994;-0.224809;-0.238134;-0.286816;-0.283607;-0.374136;-0.373308;-0.378412;-0.397636;-0.473857;-0.432676;-0.497931;-0.515501;-0.564558;-0.589970;-0.607348;-0.660227;-0.682767;-0.740913;-0.747019;-0.786842;-0.814092;-0.850902;-0.874117;-0.884515;-0.970848;-0.986176;-0.998275;-1.030690;-1.053092;-1.061609;-1.127241;-1.119067;-1.193844;-1.159049;-1.228828;-1.305821;-1.281004;-1.330172;-1.358521;-1.309880
-1.104346;-1.134768;-1.110966;-1.063927;-1.090968;-1.095139;-1.046231;-1.013083;-1.003237;-0.999969;-0.960659;-0.960909;-0.990111;-0.898746;-0.922873;-0.876381;-0.844818;-0.852847;-0.848604;-0.792782;-0.781593;-0.768893;-0.755851;-0.743315;-0.686581;-0.724632;-0.708734;-0.620895;-0.651525;-0.619045;-0.642886;-0.590717;-0.558696;-0.550259;-0.594365;-0.543642;-0.563477;-0.553317;-0.477478;-0.521668;-0.489172;-0.431401;-0.460245;-0.444720;-0.413949;-0.404041;-0.422472;-0.402163;-0.444608;-0.389409;-0.405894;-0.358839;-0.366644;-0.303171;-0.353148;-0.313906;-0.326082;-0.308484;-0.295514;-0.302433;-0.279205;-0.261719;-0.231372;-0.239196;-0.256297;-0.241442;-0.214886;-0.136847;-0.155322;-0.139989;-0.077042;-0.048650;-0.018816;-0.026188;0.006259;0.049006;0.090243;0.111215;0.168407;0.192897;0.240432;0.282898;0.328105;0.350974;0.409462;0.520728;0.503126;0.575761;0.623319;0.651912;0.737062;0.766428;0.881791;0.940976;0.961693;1.009478;1.108711;1.130875;1.187322;1.301186;1.309436;1.379420;1.427090;1.467483;1.504159;1.542715;1.639016;1.670301;1.707328;1.741591;1.773482;1.822043;1.826578;1.859725;1.861068;1.870530;1.880497;1.878266;1.867481;1.862555;1.830214;1.869144;1.843012;1.829049;1.772301;1.759403;1.760758;1.685494;1.615918;1.617609;1.524660;1.513621;1.459824;1.417008;1.308925;1.223902;1.209474;1.109260;1.069062;1.018442;0.925498;0.892479;0.768010;0.672521;0.585976;0.544165;0.459182;0.379818;0.302167;0.234023;0.147966;0.097646;0.033491;-0.041588;-0.115398;-0.217223;-0.231097;-0.267242;-0.319098;-0.387433;-0.481983;-0.503404;-0.548433;-0.587028;-0.637364;-0.644634;-0.757129;-0.792614;-0.797231;-0.875073;-0.922007;-0.932388;-0.970369;-0.917690;-1.012928;-1.085272;-1.053053;-1.056456;-1.087982;-1.097085;-1.149207;-1.126814;-1.182288;-1.194419;-1.159877;-1.202025;-1.242621;-1.249428;-1.255618;-1.241710;-1.235944;-1.318904;-1.270385;-1.275869;-1.284647;-1.300939;-1.289693;-1.296227;-1.310319;-1.342720
-1.357028;-1.228888;-1.288009;-1.278115;-1.124795;-1.131012;-1.069433;-0.974241;-0.982987;-0.903897;-0.864986;-0.807672;-0.766180;-0.703081;-0.606055;-0.594177;-0.509919;-0.481430;-0.393340;-0.371297;-0.321246;-0.243192;-0.122646;-0.125038;-0.051861;0.044595;0.074944;0.144358;0.224514;0.291751;0.334691;0.362366;0.408367;0.549873;0.557299;0.711624;0.665538;0.740618;0.735533;0.868351;0.906675;0.999588;0.952863;1.080409;1.043763;1.134406;1.214784;1.198182;1.267193;1.300974;1.331320;1.360507;1.383681;1.416661;1.516536;1.511261;1.485120;1.560846;1.594792;1.572535;1.602537;1.610508;1.625343;1.617655;1.644423;1.670216;1.671517;1.677507;1.702428;1.752226;1.655714;1.671795;1.643654;1.607491;1.637477;1.604589;1.595188;1.582863;1.591243;1.498434;1.507961;1.494403;1.406384;1.416253;1.342592;1.299410;1.300231;1.239104;1.174212;1.172093;1.092068;0.975535;0.944813;0.947061;0.874711;0.780595;0.744029;0.701746;0.589696;0.567598;0.493468;0.404142;0.374911;0.319395;0.261515;0.233828;0.166486;0.057924;0.072998;-0.058621;-0.053598;-0.133056;-0.136051;-0.273324;-0.306527;-0.313676;-0.354631;-0.382730;-0.466815;-0.464138;-0.500147;-0.482996;-0.537400;-0.608896;-0.562507;-0.641051;-0.654545;-0.608630;-0.660858;-0.664873;-0.678197;-0.658641;-0.686403;-0.625183;-0.691933;-0.726773;-0.650690;-0.683713;-0.701772;-0.651921;-0.690779;-0.669009;-0.657216;-0.661074;-0.547823;-0.664998;-0.667946;-0.647732;-0.691184;-0.675651;-0.668445;-0.652756;-0.628164;-0.628432;-0.648542;-0.620972;-0.684545;-0.627689;-0.614929;-0.653029;-0.709678;-0.688859;-0.680780;-0.683062;-0.671159;-0.712880;-0.734097;-0.784573;-0.781181;-0.719078;-0.811454;-0.828280;-0.857313;-0.870107;-0.851725;-0.903452;-1.001156;-0.969029;-1.005915;-0.987369;-1.002399;-1.019773;-1.113792;-1.123974;-1.169038;-1.155215;-1.250952;-1.266666;-1.330202;-1.333139;-1.332623;-1.336967;-1.360840;-1.429506;-1.374019;-1.486516;-1.409859;-1.455729;-1.487426;-1.552977
-2.604384;-2.404792;-2.452169;-2.436515;-2.392125;-2.272616;-2.179934;-2.101630;-2.065718;-1.902761;-1.932013;-1.897138;-1.739958;-1.701235;-1.644189;-1.471859;-1.508285;-1.344830;-1.316007;-1.193061;-1.246053;-0.943432;-0.930763;-0.841586;-0.875070;-0.740767;-0.593523;-0.530465;-0.462532;-0.405035;-0.396818;-0.303887;-0.085468;-0.101645;-0.068268;-0.045412;0.115754;0.048107;0.085772;0.201030;0.237322;0.247800;0.362405;0.316458;0.309804;0.507101;0.502198;0.506478;0.587224;0.617199;0.691349;0.728897;0.566782;0.576538;0.717336;0.527863;0.712883;0.647804;0.646769;0.703802;0.757043;0.729138;0.694179;0.746218;0.683553;0.644218;0.714804;0.689315;0.630236;0.572504;0.636805;0.664193;0.730623;0.567468;0.658372;0.571305;0.700902;0.622984;0.631879;0.568688;0.590831;0.530099;0.511300;0.452957;0.472770;0.573895;0.458871;0.447829;0.540166;0.463437;0.475667;0.517810;0.418868;0.421143;0.385831;0.463694;0.368975;0.608181;0.391569;0.398060;0.322650;0.466735;0.375488;0.416632;0.440604;0.506773;0.418328;0.276882;0.489982;0.381442;0.407637;0.352581;0.493102;0.351089;0.479431;0.582485;0.388438;0.480417;0.458092;0.437725;0.612680;0.533102;0.580767;0.650962;0.634208;0.671656;0.764986;0.716955;0.719117;0.738151;0.760610;0.757466;0.728350;0.783206;0.793556;0.848272;0.868983;0.870846;0.919227;0.966109;0.985985;1.063592;1.058686;1.074348;1.116835;0.972711;1.018231;1.091861;1.012357;0.877791;1.004065;0.933648;0.992659;0.973443;0.966088;0.924774;0.877791;0.864509;0.872700;0.778228;0.801601;0.758611;0.608207;0.660910;0.568045;0.489482;0.434860;0.335089;0.364505;0.237493;0.120242;0.030993;-0.115605;-0.131064;-0.215876;-0.264438;-0.337915;-0.463013;-0.622607;-0.680020;-0.770496;-0.836838;-1.001310;-1.049551;-1.035772;-1.161558;-1.339782;-1.338395;-1.429077;-1.623274;-1.682706;-1.803512;-1.771863;-2.053396;-1.984438;-2.124960;-2.187131;-2.245194;-2.336596;-2.448789
-1.717468;-1.665338;-1.702004;-1.607886;-1.674356;-1.625851;-1.485777;-1.555106;-1.505573;-1.454173;-1.456134;-1.442888;-1.363660;-1.325723;-1.386085;-1.278718;-1.276498;-1.270139;-1.238612;-1.162051;-1.233399;-1.133233;-1.148127;-1.143051;-1.109866;-1.065336;-1.052270;-1.036012;-1.006039;-1.010690;-0.903170;-0.904845;-0.918098;-0.895012;-0.872640;-0.801461;-0.843110;-0.766787;-0.732884;-0.734074;-0.789004;-0.758322;-0.754951;-0.706291;-0.743362;-0.672812;-0.722943;-0.708930;-0.615482;-0.679535;-0.629223;-0.663977;-0.646020;-0.615094;-0.600419;-0.577159;-0.576712;-0.581840;-0.553810;-0.580005;-0.555255;-0.550983;-0.571746;-0.540621;-0.552867;-0.564394;-0.575790;-0.489800;-0.563136;-0.467954;-0.535655;-0.493097;-0.423225;-0.372562;-0.419875;-0.367604;-0.423825;-0.359530;-0.309880;-0.349110;-0.278893;-0.209856;-0.312570;-0.156704;-0.222407;-0.107788;-0.085558;-0.071934;-0.024259;-0.016212;0.114436;0.076158;0.209554;0.184614;0.222700;0.332246;0.392420;0.358964;0.409266;0.410054;0.593303;0.571913;0.563493;0.649130;0.698976;0.710779;0.811734;0.837676;0.918670;0.960840;1.028667;1.026732;1.033221;1.117403;1.131906;1.176344;1.138898;1.234120;1.226893;1.279525;1.343646;1.331414;1.357090;1.391012;1.457532;1.453051;1.425357;1.505507;1.478563;1.539697;1.571778;1.557080;1.536328;1.582606;1.576207;1.579588;1.553561;1.560245;1.507215;1.538087;1.561173;1.565432;1.527242;1.461767;1.511723;1.536177;1.476449;1.432727;1.406903;1.421698;1.379481;1.381712;1.316031;1.304847;1.243454;1.224172;1.190271;1.149688;1.113016;1.089747;1.034116;0.934305;0.951015;0.856105;0.857475;0.778359;0.732465;0.694413;0.577288;0.580470;0.469165;0.385820;0.346321;0.301326;0.211114;0.161967;0.095008;0.020877;-0.048737;-0.119447;-0.220181;-0.204210;-0.306663;-0.320602;-0.451232;-0.577794;-0.584469;-0.711748;-0.663768;-0.734779;-0.855082;-0.908472;-0.971650;-0.970821;-1.075085;-1.123278;-1.162848;-1.206157;-1.344629;-1.332741
-2.456262;-2.366797;-2.377986;-2.296812;-2.381925;-2.234314;-2.113372;-2.134719;-2.028674;-2.050351;-1.911181;-1.789932;-1.874895;-1.603290;-1.585006;-1.545096;-1.477662;-1.408324;-1.385160;-1.355393;-1.204801;-1.136736;-1.122658;-0.930039;-0.871137;-0.835200;-0.722955;-0.604055;-0.498200;-0.523218;-0.429073;-0.359016;-0.296614;-0.232089;-0.158623;-0.068428;-0.090382;-0.001776;0.097172;0.226929;0.261033;0.333107;0.397044;0.380000;0.398770;0.410807;0.529432;0.477290;0.608468;0.638221;0.558063;0.695474;0.744783;0.662079;0.829140;0.839852;0.847828;0.769343;0.957591;0.899286;0.931226;0.910215;0.971714;0.998800;1.076613;1.051750;1.114907;1.039621;1.200965;0.998846;1.209901;1.083840;1.115181;0.949911;1.052580;1.010029;1.095828;1.039506;1.018552;1.075404;0.985598;1.044377;1.030589;0.963056;0.918268;0.875912;0.838987;0.830889;0.761548;0.802738;0.720126;0.737190;0.806386;0.600687;0.632875;0.612252;0.530687;0.612397;0.496084;0.467564;0.543993;0.438921;0.503065;0.375701;0.332470;0.432424;0.335024;0.309732;0.229079;0.203701;0.375271;0.181285;0.274683;0.138207;0.263684;0.191357;0.166168;0.184529;0.199890;0.196601;0.127700;0.198868;0.210619;0.119366;0.181702;0.224153;0.219836;0.333641;0.317825;0.336750;0.349271;0.355788;0.379883;0.415271;0.532429;0.533635;0.568220;0.600368;0.557390;0.678696;0.609328;0.628136;0.702750;0.731081;0.781844;0.817037;0.727642;0.812401;0.741289;0.829486;0.747807;0.855488;0.786679;0.851420;0.822090;0.721579;0.773358;0.768603;0.735788;0.689407;0.704214;0.599093;0.542760;0.584263;0.459021;0.486216;0.430972;0.326495;0.324499;0.145436;0.252042;0.033965;-0.055583;-0.066672;-0.125348;-0.361089;-0.391731;-0.412138;-0.576816;-0.568955;-0.630542;-0.759566;-0.866458;-1.047076;-1.094881;-1.180829;-1.280472;-1.382326;-1.431225;-1.528353;-1.685333;-1.751557;-1.809955;-1.933432;-1.839117;-1.973407;-2.041188;-2.125742;-2.251208;-2.281550
-1.744361;-1.738097;-1.719828;-1.663627;-1.578628;-1.542677;-1.504835;-1.468105;-1.363478;-1.417244;-1.256360;-1.340302;-1.211539;-1.179458;-1.087187;-1.073887;-0.951862;-0.965411;-0.926544;-0.835519;-0.794249;-0.702435;-0.733708;-0.620980;-0.564552;-0.550271;-0.483414;-0.447179;-0.412196;-0.365609;-0.310801;-0.278831;-0.242937;-0.219412;-0.234823;-0.099515;-0.119124;-0.141530;-0.098373;-0.081997;-0.077253;-0.127366;-0.075028;-0.054079;0.015472;-0.145735;-0.098773;-0.098126;-0.082682;-0.057243;-0.134262;-0.185618;-0.231665;-0.221702;-0.231916;-0.160176;-0.216905;-0.242675;-0.219332;-0.333006;-0.305905;-0.329295;-0.387424;-0.397126;-0.386136;-0.351119;-0.453785;-0.438449;-0.481842;-0.398273;-0.480798;-0.458108;-0.538343;-0.476465;-0.478900;-0.510583;-0.455933;-0.430652;-0.444367;-0.433067;-0.389592;-0.409877;-0.389889;-0.281359;-0.247260;-0.255531;-0.202204;-0.198080;-0.035415;-0.055399;0.027043;0.088765;0.146168;0.172487;0.190289;0.363937;0.307852;0.519390;0.489865;0.581141;0.691608;0.771108;0.798213;0.769274;0.849405;0.974497;1.002421;1.171011;1.190969;1.235620;1.356627;1.309050;1.343813;1.398757;1.461644;1.535270;1.575528;1.594896;1.630191;1.663807;1.646409;1.719697;1.706924;1.786179;1.797944;1.797689;1.780492;1.725419;1.727032;1.726455;1.661305;1.671087;1.629305;1.705676;1.622854;1.653792;1.647989;1.518068;1.532492;1.552393;1.524428;1.378557;1.333170;1.256098;1.258977;1.195347;1.207977;1.092393;1.068378;0.971756;0.985944;0.964915;0.862232;0.768009;0.770917;0.707612;0.535391;0.612783;0.573910;0.442690;0.364137;0.296783;0.296201;0.198936;0.164903;0.058289;-0.045767;-0.063834;-0.099433;-0.209404;-0.187803;-0.297622;-0.407894;-0.444018;-0.538905;-0.530106;-0.697026;-0.695203;-0.696873;-0.820475;-0.858927;-0.995336;-1.031146;-1.009360;-1.147827;-1.140239;-1.253393;-1.262516;-1.351089;-1.391117;-1.471287;-1.494042;-1.535930;-1.619523;-1.611902;-1.639761;-1.679528;-1.741048;-1.738756;-1.853355
-1.020067;-0.975853;-0.938115;-0.913865;-0.878361;-0.877348;-0.801219;-0.817292;-0.765015;-0.741508;-0.677148;-0.683269;-0.606022;-0.607756;-0.576033;-0.510133;-0.484051;-0.461102;-0.325997;-0.362856;-0.305912;-0.273921;-0.205653;-0.157107;-0.148713;-0.044441;-0.033186;0.055667;0.089061;0.133745;0.159008;0.190200;0.234535;0.232329;0.338006;0.339090;0.426267;0.475773;0.546093;0.540228;0.620579;0.658346;0.763523;0.743785;0.816256;0.876868;0.883189;0.940580;1.012996;0.985310;1.092483;1.124583;1.149708;1.208035;1.201024;1.248253;1.276572;1.394628;1.360375;1.400103;1.429967;1.450619;1.499740;1.532502;1.551931;1.604033;1.607298;1.611135;1.648213;1.639353;1.637352;1.667016;1.715490;1.664049;1.698217;1.683726;1.674664;1.684627;1.698983;1.651017;1.639126;1.641917;1.640834;1.588583;1.566455;1.529746;1.472437;1.433739;1.375329;1.351878;1.338991;1.282029;1.192332;1.176992;1.160541;1.052353;1.009019;0.957965;0.917233;0.847239;0.828872;0.764684;0.649694;0.650873;0.605059;0.500195;0.467815;0.389176;0.370526;0.264121;0.194591;0.145339;0.129345;0.073587;0.060977;-0.007062;-0.028444;-0.140207;-0.187796;-0.215119;-0.233130;-0.310130;-0.322464;-0.312471;-0.391638;-0.426037;-0.454787;-0.527409;-0.484508;-0.481589;-0.553293;-0.548959;-0.647719;-0.618122;-0.687886;-0.686347;-0.676842;-0.719412;-0.738509;-0.727467;-0.783403;-0.763885;-0.765415;-0.794467;-0.774189;-0.815273;-0.827015;-0.821931;-0.851861;-0.842625;-0.888334;-0.841435;-0.883483;-0.915319;-0.916713;-0.926869;-0.884062;-0.966824;-0.907649;-0.918106;-0.927711;-1.000715;-0.977240;-0.980593;-0.979384;-1.029581;-1.015418;-0.995704;-1.030523;-1.045867;-1.037208;-1.060889;-1.090458;-1.060257;-1.072879;-1.120259;-1.089956;-1.133637;-1.113091;-1.140946;-1.131766;-1.151183;-1.182258;-1.197918;-1.157474;-1.201752;-1.188723;-1.207598;-1.244150;-1.223489;-1.252992;-1.258516;-1.264383;-1.252836;-1.332404;-1.309585;-1.315793;-1.312051;-1.351012;-1.290376
-0.629407;-0.546359;-0.512205;-0.482265;-0.367176;-0.342925;-0.202604;-0.138251;-0.141899;-0.040948;-0.021155;0.114232;0.180735;0.241188;0.366226;0.453011;0.515842;0.587163;0.731845;0.762004;0.870209;0.925720;0.982209;1.072966;1.139324;1.230182;1.279411;1.384447;1.436883;1.525020;1.530883;1.582054;1.651313;1.713419;1.762958;1.792501;1.826286;1.819934;1.837643;1.826404;1.885682;1.867133;1.927234;1.904404;1.868370;1.921566;1.879564;1.877649;1.799549;1.820056;1.831777;1.775611;1.725510;1.695071;1.646539;1.648902;1.545014;1.568050;1.481538;1.427937;1.382198;1.309255;1.240189;1.175643;1.127232;1.118612;1.056997;1.017831;0.858056;0.858975;0.864704;0.744014;0.700174;0.609838;0.622886;0.528976;0.491654;0.462413;0.373419;0.346879;0.293189;0.202167;0.214465;0.143445;0.105450;0.013133;0.065715;0.025222;-0.030116;-0.047874;-0.074096;-0.128127;-0.183663;-0.198643;-0.244277;-0.213345;-0.272356;-0.241895;-0.298673;-0.362633;-0.348292;-0.375971;-0.404230;-0.405189;-0.401005;-0.430486;-0.392394;-0.481509;-0.471317;-0.472961;-0.502742;-0.441685;-0.483810;-0.482880;-0.524938;-0.552069;-0.530822;-0.541947;-0.546910;-0.564496;-0.585674;-0.527641;-0.563925;-0.565738;-0.582148;-0.575170;-0.591039;-0.593953;-0.569603;-0.588362;-0.607861;-0.595251;-0.638369;-0.638490;-0.643965;-0.666420;-0.701991;-0.686637;-0.656282;-0.683930;-0.688141;-0.683855;-0.663832;-0.725368;-0.664819;-0.693733;-0.648401;-0.709366;-0.748249;-0.736801;-0.752601;-0.760710;-0.743460;-0.745516;-0.763890;-0.798029;-0.801996;-0.814296;-0.790448;-0.799696;-0.819453;-0.817071;-0.891304;-0.887856;-0.883060;-0.886533;-0.927323;-0.911331;-0.926553;-0.968847;-0.973998;-0.987902;-0.997311;-1.005488;-1.062882;-1.079493;-1.094346;-1.069418;-1.110007;-1.070407;-1.119301;-1.143431;-1.155376;-1.136194;-1.182903;-1.154200;-1.201865;-1.202679;-1.212365;-1.218688;-1.273003;-1.269831;-1.295352;-1.260074;-1.292494;-1.266624;-1.300597;-1.331440;-1.335560;-1.397135
-1.795371;-1.691531;-1.787562;-1.733450;-1.730158;-1.727114;-1.699683;-1.724485;-1.682560;-1.635730;-1.606409;-1.604415;-1.522594;-1.582022;-1.497133;-1.469681;-1.445552;-1.394116;-1.450396;-1.426453;-1.438068;-1.383180;-1.307900;-1.322974;-1.247859;-1.274305;-1.242171;-1.200336;-1.196624;-1.136133;-1.113411;-1.090480;-1.000094;-1.033586;-1.007252;-1.002387;-0.896438;-0.894696;-0.915055;-0.866944;-0.776363;-0.827099;-0.776902;-0.719003;-0.685713;-0.622860;-0.687580;-0.593661;-0.574048;-0.577045;-0.576984;-0.497571;-0.419621;-0.443824;-0.414174;-0.372528;-0.325642;-0.284499;-0.319662;-0.170313;-0.237642;-0.180289;-0.135526;-0.135888;-0.123733;-0.040274;-0.027331;-0.000017;0.025022;0.101029;0.081690;0.111377;0.193374;0.269602;0.231480;0.316960;0.336070;0.303369;0.417016;0.440684;0.433562;0.421158;0.468786;0.527046;0.526195;0.594992;0.606433;0.568942;0.652360;0.700734;0.732740;0.767198;0.774678;0.803695;0.846881;0.858508;0.896039;0.971033;0.985617;0.942895;1.001066;1.011400;1.039251;1.018141;1.062654;1.095776;1.112225;1.122644;1.183304;1.198968;1.197071;1.279473;1.207664;1.215377;1.247849;1.289826;1.253431;1.290486;1.296330;1.296496;1.281177;1.311923;1.337179;1.268173;1.320399;1.261993;1.315748;1.331798;1.363778;1.360960;1.296877;1.295774;1.288406;1.261879;1.300852;1.230856;1.255322;1.162894;1.188758;1.169187;1.186044;1.211987;1.186989;1.172983;1.130587;1.113924;1.051729;0.977491;1.008856;0.944589;0.986276;0.953271;0.888437;0.844448;0.798988;0.791125;0.835476;0.769141;0.632489;0.626098;0.488240;0.532622;0.460998;0.383275;0.433927;0.348442;0.290446;0.232685;0.173996;0.150964;0.104119;0.018985;-0.052633;-0.055349;-0.136615;-0.243437;-0.232489;-0.374879;-0.364432;-0.489741;-0.477642;-0.589822;-0.643567;-0.733958;-0.790607;-0.747605;-0.854636;-0.882197;-1.048323;-0.956867;-0.970867;-1.105370;-1.123284;-1.274890;-1.257184;-1.313112;-1.306457;-1.372084;-1.481404;-1.458608
-2.079182;-1.975187;-1.962637;-1.915730;-1.928316;-1.825480;-1.749315;-1.819066;-1.809507;-1.669877;-1.659614;-1.660782;-1.572306;-1.485550;-1.457207;-1.305087;-1.358612;-1.300905;-1.316640;-1.218889;-1.069963;-1.099806;-0.909877;-1.018475;-0.914223;-0.899872;-0.711058;-0.730409;-0.752342;-0.620207;-0.676909;-0.588027;-0.534483;-0.562585;-0.515041;-0.506530;-0.400447;-0.398555;-0.358645;-0.308909;-0.283590;-0.297282;-0.246785;-0.177893;-0.161287;-0.147196;-0.106256;-0.108324;-0.130327;-0.070905;-0.038235;0.000547;-0.058762;-0.019154;-0.065427;-0.056232;0.013950;0.025078;0.048075;0.026274;-0.007564;0.012576;-0.010884;0.025432;0.002010;-0.035725;0.023719;0.032220;0.064145;0.047753;0.088738;0.124458;0.116375;0.090837;0.159643;0.049681;0.025968;0.091481;0.140628;0.151229;0.199511;0.192579;0.241181;0.236128;0.287696;0.224343;0.331913;0.322859;0.387018;0.358363;0.388176;0.477757;0.445580;0.494469;0.512539;0.606410;0.604643;0.616537;0.664591;0.762710;0.748860;0.776054;0.818618;0.803154;0.885398;0.871750;0.912208;0.924166;0.986483;0.976764;0.997228;1.134408;1.179289;1.142253;1.204496;1.258652;1.182490;1.178400;1.237093;1.305166;1.377514;1.270810;1.240816;1.398774;1.349218;1.415682;1.350327;1.317367;1.309951;1.373330;1.390454;1.291021;1.381223;1.433336;1.389271;1.391561;1.335055;1.354128;1.319823;1.247942;1.285362;1.269558;1.249653;1.268180;1.211174;1.232426;1.130808;1.105172;1.060504;1.107497;1.085981;1.055507;1.017611;0.943204;0.859119;0.828713;0.818233;0.791723;0.758947;0.646701;0.578996;0.515114;0.453643;0.512580;0.350158;0.319761;0.249827;0.211498;0.084098;0.064011;0.013450;-0.112848;-0.078403;-0.180092;-0.306184;-0.294143;-0.448756;-0.542920;-0.575169;-0.737694;-0.777479;-0.851794;-1.011009;-1.031935;-1.072980;-1.166367;-1.323121;-1.370111;-1.300229;-1.512345;-1.508613;-1.544477;-1.651153;-1.751588;-1.722210;-1.866551;-1.825448;-1.866829;-2.056418;-2.100616
-1.751880;-1.691462;-1.753731;-1.724736;-1.681264;-1.659145;-1.694151;-1.702050;-1.641028;-1.651848;-1.629104;-1.601355;-1.530897;-1.487158;-1.483014;-1.478765;-1.483368;-1.473950;-1.450217;-1.416084;-1.407422;-1.324251;-1.338410;-1.284219;-1.299430;-1.256651;-1.173097;-1.183642;-1.131729;-1.053630;-1.030849;-1.015416;-0.984468;-0.940893;-0.894795;-0.865059;-0.784006;-0.758793;-0.732449;-0.690672;-0.614292;-0.568484;-0.483818;-0.474855;-0.403563;-0.393749;-0.342579;-0.306974;-0.202506;-0.178658;-0.175339;-0.033850;0.002571;0.043764;0.087871;0.153782;0.160691;0.207862;0.273403;0.364132;0.445929;0.469892;0.542266;0.606230;0.635845;0.637606;0.741821;0.737422;0.867513;0.830652;0.929733;0.915683;1.038313;1.007122;1.088865;1.091212;1.138904;1.155170;1.218787;1.214631;1.221575;1.218072;1.249320;1.297600;1.318441;1.276045;1.321962;1.316809;1.378532;1.416393;1.297008;1.317446;1.280549;1.351200;1.286379;1.310695;1.309772;1.304521;1.244798;1.264037;1.266388;1.291569;1.243768;1.230532;1.243817;1.210014;1.184524;1.187549;1.118781;1.065072;1.091789;1.101217;1.028554;1.059181;1.074372;1.061568;1.000947;1.024662;0.949522;0.976322;0.972819;0.969186;0.903087;0.904648;0.824043;0.834034;0.815269;0.838937;0.788744;0.706601;0.752852;0.779540;0.701177;0.687454;0.684154;0.642157;0.692007;0.575377;0.633616;0.613418;0.538788;0.507829;0.486942;0.473599;0.500053;0.425235;0.375649;0.405971;0.381116;0.371935;0.355151;0.239022;0.257292;0.215152;0.253293;0.144712;0.187132;0.129028;0.057813;-0.019432;-0.009047;0.001541;-0.065875;-0.110726;-0.133909;-0.197902;-0.188023;-0.280443;-0.292949;-0.357398;-0.431268;-0.324829;-0.446062;-0.474450;-0.561361;-0.623699;-0.620108;-0.720524;-0.730928;-0.780164;-0.834444;-0.807641;-0.880182;-0.993101;-0.991654;-1.038344;-1.116632;-1.125531;-1.217553;-1.186387;-1.244468;-1.246748;-1.333169;-1.437224;-1.307549;-1.391224;-1.428558;-1.382869;-1.425800;-1.553411
