partition,sample_id,1100,1105,1110,1115,1120,1125,1130,1135,1140,1145,1150,1155,1160,1165,1170,1175,1180,1185,1190,1195,1200,1205,1210,1215,1220,1225,1230,1235,1240,1245,1250,1255,1260,1265,1270,1275,1280,1285,1290,1295,1301,1306,1311,1316,1321,1326,1331,1336,1341,1346,1351,1356,1361,1366,1371,1376,1381,1386,1391,1396,1401,1406,1411,1416,1421,1426,1431,1436,1441,1446,1451,1456,1461,1466,1471,1476,1481,1486,1491,1496,1502,1507,1512,1517,1522,1527,1532,1537,1542,1547,1552,1557,1562,1567,1572,1577,1582,1587,1592,1597,1602,1607,1612,1617,1622,1627,1632,1637,1642,1647,1652,1657,1662,1667,1672,1677,1682,1687,1692,1697,1703,1708,1713,1718,1723,1728,1733,1738,1743,1748,1753,1758,1763,1768,1773,1778,1783,1788,1793,1798,1803,1808,1813,1818,1823,1828,1833,1838,1843,1848,1853,1858,1863,1868,1873,1878,1883,1888,1893,1898,1904,1909,1914,1919,1924,1929,1934,1939,1944,1949,1954,1959,1964,1969,1974,1979,1984,1989,1994,1999,2004,2009,2014,2019,2024,2029,2034,2039,2044,2049,2054,2059,2064,2069,2074,2079,2084,2089,2094,2100,target
train,sample_0000,0.568014617713118,0.5720769629123272,0.5737020968419276,0.5818035231920498,0.5850202531538599,0.5883524526115054,0.5920343936375516,0.5993971600259249,0.6014442936399935,0.6083470916038982,0.6148791513020434,0.6157884209927522,0.6237029994547753,0.6297099926128609,0.6373144152787953,0.6429229382386016,0.6501079811178432,0.6491570227695502,0.6575858573770718,0.6652182829885278,0.6724634397057653,0.6843777747137608,0.6814088429591166,0.6885115600460117,0.697301972366462,0.7003267322823479,0.7060891336298275,0.7082989427761254,0.7130795156635297,0.7201347475267641,0.7220601918679086,0.7269370431854809,0.7317785505910477,0.7376869694231474,0.735999539231422,0.7410579747747392,0.7437599083016089,0.7439716258837894,0.7467531466008376,0.7475108988439023,0.7513648857954784,0.7484888269470932,0.7482551186897913,0.7465202495211355,0.747943360704008,0.7444505823967436,0.745641890345156,0.7426332932173764,0.7430788975873531,0.738643262387248,0.7429953842962722,0.7379307357422076,0.7403650772599877,0.7336334437320967,0.7251648673898552,0.7277560568618029,0.7262474044822389,0.726251098665223,0.7193740141398403,0.71707599316308,0.711472521200273,0.7090391996873828,0.7035180378905848,0.7024046794398373,0.694572422607761,0.6967570036906064,0.6933533549132413,0.6888318619041955,0.6850408097071443,0.6864067742141302,0.6801554957108769,0.6805535774254721,0.6751843637535571,0.6730078081764673,0.6663105847623827,0.6684936062994329,0.6686365821336486,0.6692016874048403,0.6638116537142074,0.6594703432888164,0.6611200197985554,0.6576821659915406,0.6612723469308488,0.657996295450606,0.6605789790491654,0.655223927464762,0.6607566224815353,0.6631584720332758,0.6591429284949216,0.6666014617131547,0.6630376279270981,0.6628031656164085,0.6650157304456149,0.671535802220891,0.6659358953783359,0.6719744156477476,0.6708071339307875,0.6757198609738587,0.6803488676744742,0.6737277488595408,0.6785380473247044,0.6871199825789174,0.6812365912636452,0.6835202142331777,0.6872460281111343,0.6879672439010178,0.6907340345972495,0.691753512839488,0.6946275999281393,0.6902833157480366,0.6944815184980275,0.699122918912088,0.7049438777083379,0.7020655715406302,0.7043180703370029,0.7007970298212325,0.7049037142678078,0.7034471257804377,0.7036636658184232,0.7058283809249337,0.7030890147529196,0.7040608976026335,0.7039252378799203,0.6969949695832358,0.6981573678736,0.69750884218033,0.6960375072918363,0.7003865569720746,0.6953555182045927,0.6933705776922117,0.6879824315142236,0.6845918315002517,0.6814458029260246,0.6844780620414995,0.6782748665104934,0.6745876062355862,0.671045219212977,0.6645480703492616,0.6651916196706151,0.6615326218264557,0.659103748177071,0.6520547346424432,0.6534003969615484,0.6439113908081605,0.6417553113044382,0.6390340227256615,0.6313429013947389,0.6316725248976367,0.6310472749215483,0.6233900505899213,0.6261145586338794,0.61835153124132,0.6146663493106291,0.6058937971156804,0.608250347078819,0.6039612360715674,0.5972540686045164,0.5968971053191503,0.5974439008839113,0.5880050091460265,0.5865684911194675,0.5852506674989041,0.5812740119945801,0.5761480521615739,0.5757572179989183,0.5696400712856999,0.572138323273184,0.5635771039466355,0.5617485039836081,0.5636180674230261,0.5615078670224392,0.557786696528382,0.5535167015142708,0.5491525666467809,0.5456101793846428,0.5443403736867264,0.5443713211302462,0.5389120478930757,0.5421888313066844,0.5397632347338047,0.5389512507591833,0.5350625332068684,0.532931676498953,0.53191520369106,0.5238824665619293,0.5324000604374062,0.5223438266982713,0.5246708211808528,0.525297946495591,0.5235630754763733,0.5241806177708718,0.518905538693099,0.5214972771687583,0.5165503972832188,0.5181642989489831,0.5147508490550371,0.5069714503093495,0.511534845531988,0.5169914442621978,0.5099436370464039,1
train,sample_0001,0.5655820080293275,0.5732974337179364,0.5783744375353554,0.5820287109708185,0.5856734416503173,0.5932620404598142,0.6004702918682633,0.60097591943047,0.6112359504983914,0.6145672079313573,0.6155437536771028,0.6265045014642968,0.6263019567222711,0.6339545315925591,0.6380688267231336,0.6498107251218771,0.6532712938145417,0.6601378512225047,0.6669097548809646,0.6710769045999375,0.6828942417872682,0.6899773497513817,0.6944437313704291,0.6963081953545907,0.7016926222668844,0.7119764521711764,0.7101871914655489,0.7177137331391201,0.7223980846974208,0.7285127762468335,0.729412004717889,0.7401246177937416,0.7443451360609061,0.7389674791758618,0.7455337734218084,0.7515918827251538,0.7500724073701864,0.7587243979813523,0.7553351597789386,0.757780359352906,0.7613959015716462,0.7605867223505562,0.760836844487927,0.7619223967258121,0.7614686599233312,0.7628800336079353,0.7616667583401434,0.7588914586094481,0.7562139610060324,0.7606290605005346,0.7575718293846918,0.7563725590314158,0.7506810864965502,0.7488766936848069,0.7461406715038739,0.7415173310720053,0.7428483164582417,0.7366473407791062,0.734116143267692,0.7304502361282807,0.7309381764773053,0.7242243590190697,0.7193777595306464,0.7156210999921649,0.7086496229623922,0.7075502072464925,0.7012790186086069,0.6983803959045405,0.6897044214725006,0.6886270987785831,0.6833456299005803,0.6780610764280728,0.6741264490496465,0.6770288336749191,0.675653655601967,0.6647513162925318,0.6611497411780154,0.6587010052157483,0.6508425512426678,0.6503129395151521,0.6451305991720327,0.644597288215653,0.6400682894873189,0.6390352031128551,0.628663844836355,0.6268473572243575,0.6275609372261102,0.6180101839724367,0.6176609616515879,0.6122505592136895,0.6107825419649872,0.6077716210938945,0.6078492966734256,0.6039053515055961,0.5992224136112153,0.6036385289315127,0.6024093109635257,0.593516611028293,0.5932976320934247,0.59099779780504,0.586061595324983,0.5873549487584107,0.5885940938878104,0.5859686962636766,0.5843997344525357,0.5791168567805893,0.5859015308952991,0.5822855372600975,0.5755185235058524,0.5803158881963241,0.5824321363208927,0.5786009404748996,0.580494730628901,0.5811265311244401,0.5806417221524519,0.5817953304644677,0.5805661893989414,0.5826141588737203,0.5821332466065757,0.5873741829003545,0.5839165225272416,0.5851212945578039,0.583469290570904,0.5900496840616967,0.5920425111665093,0.5902375546163714,0.5988038327820905,0.5993274433024205,0.599436237179095,0.6017476745019297,0.6066337270247866,0.6045248444962312,0.6044820464844327,0.6089050777624142,0.6130463074576319,0.6139209632816166,0.6174203298337603,0.622922053033557,0.6220099215306573,0.6253330051065291,0.6234793701314891,0.6337422906555592,0.6300524736184318,0.6348665952741813,0.6368366895535922,0.6403619390820144,0.6408590942960765,0.6465527080535951,0.6483504791500928,0.6463681269323431,0.6478366450861837,0.6454905096942608,0.6495099064355635,0.6463349119197309,0.651624427192717,0.655981791730563,0.6506326422029818,0.6542239530107485,0.6512097437833605,0.6512949863923317,0.6527158794166704,0.6521975769055605,0.6486368417205217,0.6461438393020507,0.640612766029403,0.6403724299850697,0.6412013721853971,0.6367228495212522,0.6395311323257103,0.6344774082282089,0.6343914835151726,0.6273680782097559,0.6240231263175444,0.6240733868887219,0.6204112677003741,0.6090264120821248,0.6093283448781196,0.6055347978406447,0.6025624900966982,0.6004300635421573,0.5958360006848518,0.5891153481137174,0.5883311576667649,0.5870790201969838,0.5784905529519091,0.5743401226270075,0.57327705872949,0.5659808152122706,0.5665855769867686,0.5593571550423607,0.5503020160365383,0.554919975188057,0.5502492159109909,0.543675674538562,0.5481211434166617,0.5409761868245033,0.5342233206102726,0.5348633772540818,0.5258403000296732,0.5304454256672912,1
train,sample_0002,0.535245234084655,0.5454256590414115,0.5456730074889231,0.5475120193915184,0.5541966485051042,0.5554082970585289,0.5636444161224015,0.5630815474345001,0.5649201293981415,0.5675144894086606,0.5740684505966955,0.5753673636968429,0.582579683023986,0.581415364306467,0.5815469301850245,0.5923203696508884,0.59466795468114,0.602698512034945,0.6058383429933669,0.6055068127433589,0.6109264074324359,0.6133984570420284,0.621156260111883,0.6215170948476969,0.6301272350358389,0.6286965117459729,0.6363166189525683,0.6378986358458081,0.6435048745738179,0.6483560749469666,0.6482167990921963,0.6567714000634759,0.6571647640013467,0.6568619416611007,0.6633805042122394,0.6650760262789996,0.6617111787225675,0.6718359644912196,0.6714902189989947,0.675984069992678,0.6792610867820404,0.6812883472248052,0.6852100167414517,0.6800921008276153,0.6877260694392473,0.6827759728463924,0.6882257292316476,0.6914810508842417,0.6944549473921051,0.6903448926459268,0.6910017460868673,0.6981651463530634,0.6952682045088341,0.6974671246684986,0.6933425472368743,0.6922261164597224,0.6932779298490511,0.6969514071042768,0.6928387834206342,0.6954841325755571,0.6904620715284541,0.6918688790535353,0.6944354141619614,0.6942490342121957,0.6896854905328853,0.689635036711941,0.6921349912670502,0.6932003755260276,0.6887297822811876,0.6890476821943159,0.6858172744121698,0.6873217531381874,0.6873082671371001,0.6843713964517432,0.6806325794032537,0.6847610873222938,0.6803734311641216,0.6810219983428742,0.6796286446603418,0.6736945148971722,0.6796167735393349,0.6717513602666375,0.673889720603675,0.6736327246077266,0.6669815184131962,0.6706273354862904,0.6664267760576825,0.663337292089824,0.6637085289072799,0.6633693884231744,0.6627561233802013,0.6598707200389597,0.6594786368330784,0.6551809831001041,0.6501386388878303,0.6532317161001877,0.6511156372845635,0.6448015049272976,0.6481340250643852,0.6458946473816654,0.64906229912715,0.642190112986488,0.6399577677535602,0.6442669952661657,0.6405769780897841,0.6365190110331934,0.636617620376374,0.6364800371169569,0.6387148963982823,0.6349649264689119,0.6390237227056157,0.6375505942033239,0.6408504012642282,0.6389759270102318,0.6405074102829762,0.6407085018586829,0.6406961026818939,0.6435264819456833,0.6438069076620905,0.6425304918814971,0.6454543425025907,0.6459183904746212,0.645312189011957,0.6472416601237692,0.6501828689345223,0.6532578908656512,0.6557424103394207,0.6586832762806313,0.6596357942601491,0.6598818868865434,0.6642432304679846,0.6627859659409017,0.6691115626883881,0.672338131071605,0.6750319209374311,0.6747381273490591,0.6796593950159614,0.6824894919528044,0.685471801837982,0.685923374416489,0.6927061194727995,0.6935705366090507,0.6962072538099697,0.6951274896246762,0.7026204254295993,0.7000818927451673,0.7058850223650425,0.7048952499033895,0.7052859787904768,0.7109879659115207,0.7071650546537297,0.7102529266564276,0.7166301640246461,0.7152967281858627,0.7116186318620427,0.7140709910579355,0.7142311659873849,0.7128576492282171,0.711874969484364,0.7108255033898688,0.7060786937056533,0.7069875909366915,0.7086206695536246,0.7031551546020529,0.702285778568252,0.7014577606654583,0.6989444515504468,0.6964683496743365,0.6941334379640727,0.6905032562555453,0.6885746970582463,0.6843200264180953,0.6770375787198457,0.678142215411944,0.6764091266519144,0.6661235828612292,0.6616726145873159,0.6627221696406067,0.6528600617662581,0.6512452940031889,0.6397930749223573,0.6334536713925725,0.6350130541620191,0.6308937670919091,0.6307904371746095,0.6205023183439794,0.6191493783911484,0.6107796260216128,0.6104305212372931,0.6054106201985685,0.6006109833317885,0.5942759744537902,0.5931720181305289,0.5828603968441168,0.5829146004403953,0.5791636818236973,0.5766045944936402,0.5692179410957128,0.5656302367408695,0.5530442552259299,1
test,sample_0003,0.5305473585774347,0.5326614007737903,0.5388127492708852,0.5414999394775356,0.5405623734683614,0.5445691252393585,0.5490241366064826,0.5526216910158953,0.5559419075988361,0.5563412751888334,0.5601303125008015,0.5646041441915136,0.5659289659041244,0.5686199783954304,0.5722292000092758,0.5765646109519185,0.57836054444424,0.5808034763501935,0.5878425792339406,0.5870143522596731,0.5916036662240973,0.5973662772019429,0.5984102603926602,0.6037624869477136,0.6087068077718407,0.6130442750053182,0.6125525933702969,0.6160500723884669,0.6233140768095249,0.6244564870777978,0.6286549898931,0.6307447363914304,0.6280808106520539,0.6351949059167578,0.6357449672383481,0.6405574560691657,0.6446072018995546,0.6472747275999811,0.6496129040248579,0.6507383076991662,0.6528783148276327,0.6511080508783944,0.6591875743341258,0.659329120555837,0.6647656502977695,0.6585475075182121,0.6661110440652497,0.6705226491993705,0.6687375309301643,0.6689235913375947,0.6697700475824742,0.6702106532657036,0.672949738537665,0.6708461976959577,0.6761773996918015,0.6726162601604446,0.6786259229540886,0.6765981089849822,0.6745230329718863,0.6827273497698798,0.6811862270845648,0.6813747874657573,0.6845961686629373,0.6794531758252073,0.6830115503762518,0.6840918402476427,0.6849213563808076,0.6872818388601706,0.686964586647793,0.6892851681642365,0.6898912218464253,0.6902990338352564,0.6861020625020742,0.6966310183465393,0.6921943651893694,0.6934740328535043,0.6988160910131322,0.6976997960009246,0.7028269380389216,0.6994227501276824,0.6984049368842292,0.7030893359521528,0.701591930579082,0.7068444293224432,0.7100918125836193,0.7114024757888722,0.7109237459633082,0.7109616353916616,0.7110154902111888,0.7167308720260233,0.7144245549064864,0.7176187741810078,0.7171234511235836,0.7198144150740919,0.7243320566260536,0.7277963099836959,0.7253085121022678,0.7272542342075166,0.7308992784692958,0.7314961956488977,0.7344116397103879,0.7384694765405537,0.7386915254375824,0.737739951648299,0.7407305506049681,0.7443795431276856,0.7398261880390613,0.7438847706022016,0.7479335957832339,0.745082539608392,0.742098599957894,0.7463254506370535,0.7468679924257585,0.7432265861061548,0.7485455905166252,0.7459860748935203,0.7401836707441181,0.7478539441861656,0.7491356172811023,0.744031859297974,0.7454228968806199,0.7425705312712331,0.743927799642434,0.7386451962513664,0.7398320915146914,0.7317249869747815,0.7366787938665705,0.733988365736514,0.7314963979320593,0.7272192714905704,0.7252952657242664,0.720616031807399,0.7225574590239242,0.7176621834457328,0.7101782004688665,0.7131630353021692,0.7055374510903965,0.7041678529202549,0.7052028980499081,0.7006515655483581,0.6920245766223652,0.6932319990628111,0.6885869568985785,0.6854412973015366,0.6775476668913976,0.6805400452075995,0.6777312070889989,0.6711155552668866,0.6638702657387805,0.6609198293045091,0.661756334753012,0.6549151160089,0.6530926954277765,0.6481786545863031,0.6449255340573835,0.6434237721616759,0.635268382310297,0.6347127859005119,0.6336211219389115,0.6255166864080102,0.6224842952043331,0.6218970477371881,0.617230632150741,0.6134668380194657,0.6105023153231999,0.6091769448872018,0.602618115576236,0.5998177042460547,0.5975262209332756,0.5930522426869974,0.5905905087198119,0.5887408271878871,0.5881501006951105,0.5741126075373288,0.5812556132052825,0.5759114432397697,0.5700316115548382,0.5666101010889449,0.5660677955377259,0.5626095870481844,0.5593676162992314,0.553904394036974,0.5558803819497055,0.5527295563678066,0.5465672730742305,0.5449252480245984,0.5498527973827398,0.5425401330105762,0.5408710819278648,0.5320824463912065,0.5342108162023365,0.5326976280492319,0.5296322819456256,0.5299803023856641,0.526031276616962,0.5221408040480319,0.5266817920542721,0.5260318444888316,0.5254670648162488,0.5176278369820325,0
train,sample_0004,0.5647714452538866,0.5649729697988108,0.5701624647620587,0.5698630647321123,0.5729932930705296,0.581579967141101,0.5828021666612133,0.588842573364727,0.5957613962554622,0.5994006463489532,0.606742221186718,0.6108138739037977,0.6176502926876837,0.6180322693456398,0.6289482201813832,0.6291537231270407,0.6376626831529238,0.6414219172874882,0.6506786374205834,0.6577335366773053,0.6647886607298761,0.6702954918599653,0.6709725812101124,0.6802288248724937,0.681601076736224,0.6915817803052673,0.6941331535537318,0.6969470579731081,0.7032952898875375,0.7140051886492796,0.7112582843008997,0.7171946647075857,0.7242572717694256,0.7305715937273128,0.735087223847321,0.7379991414015927,0.7295863264079951,0.7441061103610955,0.7475944725029322,0.7481439066307218,0.7481654230047579,0.7514722765769304,0.7536822328943654,0.7505405729608744,0.7564994334700773,0.7609357686967982,0.7575216264557652,0.7583466358884644,0.7646316792871202,0.7657779460918182,0.7654264218339273,0.7614916976978651,0.7615024349271282,0.7641376728022572,0.7622353158636594,0.7623152843895513,0.7611284087948016,0.7650219439319793,0.7620254826930823,0.7584258861415523,0.7570506947677188,0.7540723959622528,0.7543257814542178,0.7519831924471296,0.7488780282205171,0.7473501873322081,0.7465056947676978,0.7392299313130367,0.741692336890635,0.7381858377552059,0.7330072310809409,0.7348741131133774,0.7313159483812153,0.725959696511645,0.7211711641500947,0.7211022388524445,0.7132478639451392,0.7155175072867674,0.7071443216419668,0.7074849177526271,0.7043309299051935,0.6993338401638148,0.6968870756129659,0.6938819431007767,0.6891863380978367,0.684067810354015,0.6813875939807061,0.675999465577227,0.6786499595900527,0.6746714955006818,0.6672058156393245,0.6651583586806676,0.659904945112744,0.6592930879682275,0.6552015584453627,0.6480342561472523,0.6458169006210003,0.6458398811149566,0.6435500087039097,0.6368553513437039,0.6313069205208128,0.6317221836887785,0.6284610399808301,0.6241211242219066,0.6208290310762368,0.6196096716305535,0.6188255466663437,0.6180306959578734,0.6086742874871486,0.6077002945348949,0.607154812349809,0.6073093424410058,0.5980824186569291,0.5990580001037848,0.6088079718967623,0.5968514441252833,0.597554445444533,0.5951578223972811,0.5960551244871382,0.594149621931344,0.5934660115085426,0.5911369661301116,0.5922993520847062,0.5922423455022806,0.5927429642431429,0.5962147340010546,0.5923672321941126,0.5984587754422448,0.5980002208791471,0.5989051256399992,0.5996159911535466,0.5983356264745713,0.6030045980575537,0.6039896922681781,0.5994689041726465,0.6051371506121674,0.6085352205234622,0.6108571885436319,0.6086865260811513,0.6110629407692134,0.6127786753113116,0.6152482959985299,0.6142580795764447,0.6157381006168794,0.6198824275691874,0.6224855460298871,0.6226066437025642,0.6215580632319412,0.6283727596167712,0.626589835275398,0.6272904748167139,0.6289147825666832,0.62584778141408,0.6286005124849126,0.6313406204174569,0.6291543603422616,0.6342421905666175,0.6309956964948278,0.6282788459249983,0.6283636574427856,0.6246436742162469,0.6283517252567283,0.6322950013168276,0.6236030822474803,0.6264187296485593,0.6214959542698725,0.6225382969757133,0.6219830950272364,0.6171806088321773,0.6165913270689001,0.6171698561468382,0.6157866899526987,0.6085585644042886,0.6045136262531192,0.60603858570859,0.6012970270132368,0.5936323745941008,0.5975929344232049,0.5923296389910309,0.5934320901760114,0.5852166789456045,0.5802587314645865,0.5811621807995029,0.583187308253746,0.5739092178746166,0.5726095384532884,0.5679111948721892,0.5604998211040065,0.558683906024704,0.5569618453481191,0.5529390574366478,0.5511484079588433,0.5514064947432147,0.5470749578740612,0.5423682262872783,0.5428191245850428,0.5371511091663421,0.5346398035497153,0.5313178748764136,0.5293448858170413,1
train,sample_0005,0.5278422096527381,0.5300465232632776,0.5347804639058271,0.5385115328899756,0.540144763498038,0.5396677228557258,0.5431530062012415,0.5456889116624002,0.5463152535468795,0.5493428936342432,0.5536296503527065,0.5610972669471549,0.5545188802461574,0.55951874168958,0.562544887198512,0.5633213205609534,0.5752994465965068,0.5746815777536762,0.5702103917879144,0.5788726073195036,0.5812683107956459,0.5803581782587275,0.5833139525245841,0.5828199987733297,0.5845454465664994,0.5901238130763804,0.5926548286046489,0.5951198444383347,0.5976660816802399,0.5987673228247152,0.6055765786483605,0.6026871761005242,0.6024852067757516,0.6051854984921925,0.6065081295298188,0.6080292699292313,0.6065905092181665,0.6120111299400186,0.6118964326008299,0.6139035273542427,0.6147798053322108,0.6126157931561201,0.608268965941489,0.6042901442437373,0.6047092032634609,0.6105659568455108,0.6103693127933428,0.6110183292127924,0.6109285102361222,0.6110813995073717,0.6083924745848927,0.6066483083873876,0.6059856726611077,0.6037361713528753,0.6088814795186049,0.602329231231844,0.6004279083025486,0.5992898147820945,0.6009386724108888,0.5994727395461514,0.596853143972323,0.5992994301120864,0.5997933347755506,0.5965424599035386,0.5919350511195595,0.5914168409265219,0.5949326839247112,0.5926683260264116,0.5907678347832419,0.5910891034471009,0.5920715083226573,0.5939933933353065,0.5927842807617274,0.5933091269793966,0.5981702813585936,0.5974167927470833,0.5950064628098792,0.6060580621710899,0.5987640499129437,0.6010336757323184,0.6055497964471196,0.6096557317434991,0.6151258425555908,0.61421843319334,0.6190998859666222,0.6234354401387049,0.6237881455558513,0.6305376701727341,0.6313572297406476,0.6382708887939298,0.6463096399008229,0.6469873653988272,0.6538355073649297,0.6553011054657933,0.6619824322298105,0.6694974981185446,0.6745537869124205,0.6785251834872608,0.685501083220713,0.691249475015866,0.69617641302459,0.6974761354660071,0.7075460922821664,0.7156937772850255,0.7191732591241401,0.7226705355617238,0.7300116271715755,0.7362833992567328,0.7419544283057867,0.7463160045317652,0.74895052984853,0.7539517858958907,0.7559179328397949,0.7612336206155674,0.7672985651927793,0.7724401691628905,0.777823588211213,0.7779278871528121,0.777590103199925,0.7865650753475926,0.7813502933729831,0.7859091008702292,0.785522598754399,0.7883637641946095,0.7891544233585719,0.7873388959482281,0.7967771489215782,0.7924113013331875,0.7954007191980973,0.7936943194680817,0.7934080579117679,0.7887670238812954,0.7909862666483074,0.7914268230311419,0.7874435164759288,0.7854528656003043,0.7832872710833773,0.788307869284995,0.7834348860810505,0.781306371151592,0.7813539458536591,0.775899001036215,0.7713007152717598,0.7716172915218695,0.7654817549269588,0.7583681700320914,0.7592602623912875,0.7552937207576564,0.7514583781540503,0.7562540079081488,0.7474787446439075,0.7401115176149206,0.7412987743131589,0.728809066664051,0.7297461460001416,0.7268371822084161,0.7228079665287139,0.7164034815961083,0.7149865979834127,0.7142390108518626,0.7064716386577357,0.7032154469163575,0.6933711100963442,0.692731687957397,0.6840852247742586,0.6827274975199884,0.6788625033824962,0.6758405774676044,0.6692713511857163,0.6671256269782226,0.6609734348988919,0.654976870430734,0.6502496013813183,0.6461930539406888,0.6397255254941955,0.6397108608289319,0.633458936860271,0.6259378571856835,0.6217682051447503,0.6153269831600391,0.6087621332090428,0.6072127847152728,0.6052397529365431,0.6017766862550906,0.5994869151445927,0.5904254730826783,0.5837023681308251,0.5851103891043924,0.5774254931720566,0.5763621309839205,0.5690808185867312,0.5613996684562389,0.5630264314519305,0.5598893055386027,0.5572614567630569,0.5493043619410255,0.5517583139018486,0.547255872230648,0.5442393307179452,0.540798450980391,0
train,sample_0006,0.5050032553818213,0.507528559750257,0.500164728604804,0.508001421257035,0.5083145905951743,0.5119649880496215,0.506131414481696,0.5112279678882276,0.5092582160196647,0.5137924043344928,0.5117115943370089,0.5161044667560297,0.5147035333443529,0.5150641621924817,0.5147923202389237,0.5159663802969848,0.5211014729007293,0.5212713885739755,0.5216641420889097,0.5196963213382958,0.5228654012750916,0.523424094621715,0.5225356306850183,0.5270603436793924,0.5215396874043108,0.5275386355170111,0.5258870808911384,0.5321614496889254,0.5265812527415804,0.5299946576378949,0.5357740114291782,0.5327873473278968,0.538230344424217,0.5381373820921637,0.5396662262819093,0.5409041150068847,0.5407972595700633,0.5481262770809634,0.5513240350451629,0.5515809521788138,0.551597524903592,0.5536103305067511,0.5546131319832932,0.5528013350227561,0.5534906738831868,0.5625105936084693,0.5619458116387394,0.5616302317197982,0.5726472787252064,0.5666002814206303,0.5710975781947072,0.5796075743660846,0.57683069884799,0.578520138007016,0.5826845747343925,0.5861772002629357,0.5937279384868304,0.5979115184386771,0.5997371726516978,0.5981336616611768,0.5958954107072184,0.6043449775735503,0.606577235803557,0.6126348810085893,0.6152398541559568,0.6178234623631207,0.6195039833231489,0.6199893486105689,0.626584707521,0.6302094899687241,0.6307202791181288,0.6350289908117088,0.6392843833329476,0.6468274000421628,0.651790482642167,0.6526748822615968,0.6575394522508765,0.6578550879686063,0.6615691570496123,0.6664998955141933,0.6709876667945208,0.6751335177922942,0.6749421243264286,0.682628048095582,0.6852243540100813,0.6918317918576556,0.6935075948928403,0.6987700717600432,0.7062633577335325,0.7093199822201492,0.7065562958025593,0.7170933975147349,0.7143374929737363,0.7226618086630046,0.7274071634300087,0.725931222071936,0.73632345349961,0.7369693258216529,0.7407041728120709,0.7477457376411235,0.7508749833886809,0.7515755697595393,0.7515005951468909,0.7608326391393294,0.7625757743259922,0.7647593590568413,0.7691419340772034,0.7716439721136594,0.7785916957654581,0.7800855458493635,0.78025320187905,0.7820471293594693,0.7835288063216439,0.7895248348048982,0.7885771766917682,0.7918581055604821,0.7909609740655013,0.7926650463224367,0.7961399488649813,0.7995668571146055,0.7969389494643009,0.7981951283429337,0.8009004570230448,0.799726347203028,0.8035574453057963,0.8048285435483005,0.7975336524416966,0.805768313511649,0.8031879884056425,0.8036970140283177,0.7964661332892653,0.8030865797622166,0.7991161063996483,0.7983462189246564,0.7954157969755231,0.7963244263142648,0.7928887722487858,0.7886963870229813,0.7863809120011611,0.7882730887819569,0.78460281174427,0.782608995990083,0.7796901917504344,0.7753132638937055,0.7758710228225463,0.7718224496963558,0.7713332899914894,0.7664119633517293,0.7610282393409232,0.7604759375217751,0.753082569611865,0.7559054594302328,0.7479055003909301,0.7491877358190872,0.7417275737304587,0.741492597183077,0.7388823334367141,0.7349582528874976,0.7261152989126717,0.7231363548393316,0.7211157396504008,0.7179096170978909,0.7120165729443519,0.7055974259644854,0.7022238401809722,0.6953824734698506,0.6929746466475385,0.6903144240379991,0.6807052544002383,0.6747362818698783,0.6730884236807162,0.6691825018222706,0.6675889031014843,0.6605426291514436,0.6516579235532696,0.6538950851725306,0.6446434701025212,0.6362332141185527,0.635323829702833,0.6265745849183726,0.6249119381130585,0.6156200981292799,0.6188360809481069,0.6130118016951672,0.6096773827327396,0.5986155354180072,0.5990567756292219,0.5939985366257833,0.5856945125664453,0.5824772372149036,0.5797442884965731,0.5762022683723511,0.5712488804801037,0.5665667027683843,0.5639872368490984,0.5651035590545413,0.5560389665442774,0.5532478660268778,0.5483965071712567,0.5467269042747923,0
train,sample_0007,0.5639536561835273,0.56892278213606,0.5756641276260378,0.5754100639482681,0.5846738740825155,0.5883522548812705,0.5927082435325641,0.599499264278803,0.6023254372949056,0.6098399351187842,0.6131008961712773,0.6207330834470662,0.6271170436475728,0.6273765682736946,0.6408457372760525,0.644183892729646,0.6453929804940933,0.6539084091415658,0.659885145393279,0.669891609166217,0.6707990035515433,0.673650675006503,0.6790711790079187,0.6860416407506299,0.6910730639541915,0.6973160905648395,0.6995517640226973,0.7042122435633107,0.7064831790593663,0.7196843805549327,0.7195597703065735,0.7246611545987512,0.7241346240470528,0.7350383094964378,0.7375267352552202,0.7350676093310251,0.7417877099235585,0.7389711653035556,0.7454672532843689,0.7426969899588185,0.7465087180664876,0.7459832841115513,0.7474453219327051,0.7477110455155332,0.7471002376983757,0.7465081923366157,0.749830365201631,0.7395952358660753,0.7445952676179162,0.743077306094855,0.7390949022008966,0.7391230149458252,0.7383687415993438,0.7299933568267923,0.7280421290296442,0.728978373136709,0.7199137524453995,0.7260940957455245,0.7184312442853937,0.7173973958126003,0.7131993651583539,0.7040850798196088,0.7061033081858265,0.7059689186478176,0.6996003786584355,0.6907715142090962,0.6967280900531663,0.6848695957066796,0.6874808076798061,0.6844504028863903,0.6773812035160338,0.6808190855418661,0.6795236321823771,0.6704871398972829,0.672194254399602,0.6703176172799636,0.6666984205953081,0.6640126940041279,0.6612848017296882,0.6690916727194877,0.6633396450713399,0.6559136489854575,0.6586484299119539,0.6580068763003706,0.6625044184988861,0.6598699671655839,0.6637418460400456,0.6644475636170515,0.6660025360871502,0.6654487428700969,0.6666640756261921,0.6621479936702535,0.6692863980965919,0.6693946271009503,0.6708008843970663,0.6686161115133914,0.6785359694172831,0.6757177096856581,0.6762734062302618,0.6766334209192506,0.6806300501719591,0.6807590740531761,0.6817063468880895,0.6867251056495522,0.688545166168266,0.6955117513953779,0.6982194051562635,0.6908692664202444,0.6927782842800421,0.6977191743972415,0.703229050083612,0.6995531189924136,0.7002820038066454,0.7052307132337718,0.707748872956364,0.7009252840424219,0.7034290445687801,0.7092343974317395,0.701644791754225,0.7032553089587945,0.7078441522784966,0.7090047840261648,0.700544607985259,0.7028877417245234,0.7043850995873289,0.7067796661063742,0.700719075657336,0.6971694701809147,0.6988793603870368,0.6939163397188554,0.6910229651313315,0.688003881862576,0.693507264701742,0.6865201316078575,0.6830015993362692,0.6835836858088444,0.6808593039218154,0.6787174105271279,0.6693097928465604,0.6715622419070113,0.6718897579623119,0.6625832889370094,0.6619851267990032,0.6626534752616563,0.6557104812336523,0.6496299208742871,0.6481124283311662,0.6432589352928149,0.6416277010366689,0.6370041898932421,0.632865911579364,0.6309502197954484,0.6311173376271929,0.6269101205393499,0.6210990504851552,0.6165406207571398,0.6150248156977044,0.6095649799932417,0.6141300564794556,0.6053361460298785,0.6037032248288413,0.5976910854853792,0.6005659093796595,0.5929551752586391,0.5951424523556471,0.5884550583842052,0.5863304178779752,0.5803231990464199,0.5783591432504853,0.5761555128257633,0.5774825757789989,0.5718956408920933,0.5676709407544748,0.5666944347739604,0.5642942356931273,0.5621765315681501,0.557670555881637,0.5574495316091227,0.5581732524181137,0.559366754278538,0.5514478237322316,0.5482736959419166,0.5433138922761607,0.5443621574591275,0.5401853224791373,0.5395530273608922,0.5419116403702684,0.5390460693022037,0.5359502422135903,0.5380990400563921,0.5369536400244638,0.5310303420492937,0.5276089966432286,0.529886441942498,0.5278172902734959,0.5293206262122117,0.5243142472896799,0.5232897733258414,0.5209102908189277,0.5248034121624379,1
train,sample_0008,0.5188371728758235,0.5244612995848448,0.517408277965023,0.5170840578828395,0.5235994599363756,0.5228427425687505,0.5240766578780857,0.5249810749257666,0.5227767274019877,0.5257017096672227,0.5301710983414688,0.533231818872864,0.5323593134143239,0.5337114929424217,0.530731785975369,0.5355852774943258,0.5384956832932963,0.5432896882464209,0.5389436237861108,0.5411455626544642,0.5462514408225376,0.5463706655598742,0.549086038957857,0.5511507456332791,0.5501745262531225,0.5550975947035067,0.5552839353161118,0.5592434348316565,0.5579185752719109,0.5604280234918886,0.5587818705917277,0.5623550260922388,0.5603008286601446,0.5637088023268133,0.5598583822128572,0.5630655163946792,0.5680493030948591,0.5722214829320683,0.5690551539506084,0.5685995261438945,0.5772070671821652,0.5711671643497593,0.5720640895369029,0.5795668680882072,0.5766990638958209,0.5804720071201086,0.5752072503057994,0.582848347290499,0.5814871967091954,0.5794222470482562,0.5870199851224267,0.5876519001362501,0.5890492242522015,0.5897175171037013,0.5873522029161987,0.5919960104029025,0.5912071917506678,0.5940273818224239,0.5928364396008289,0.595221038004335,0.6037880257176997,0.6017160498198099,0.6013342183479229,0.601582046226201,0.6044830186130747,0.6085208933537035,0.6147016087589598,0.6153082363441573,0.6158700511432396,0.6205458069443146,0.6298562476248818,0.6290566684065263,0.631741105140648,0.6282877684653387,0.6374410974831907,0.6392150589889943,0.6487002089219683,0.6500668185950133,0.6515433066300265,0.655274503268141,0.6623061041454631,0.6644720145182332,0.6732870555117452,0.6779507854369087,0.6813650957409424,0.6880694815702528,0.6907403373411541,0.7000328859680782,0.7108192354993534,0.717403459600092,0.7196952867103634,0.7290074193072149,0.7325747040521062,0.739261630742349,0.7482913895121965,0.7542798674831412,0.7635794188548355,0.7662277754892476,0.7706596591729488,0.781818750484246,0.7870487162170383,0.7955614702767473,0.7996165755244531,0.8072309124296546,0.8105075596267528,0.8183420226609549,0.8207352150401566,0.831323892549005,0.8318555674816434,0.8365458249426821,0.836674077494586,0.8434237038364225,0.8472180039446121,0.8552396095571575,0.8528783818294214,0.8547936232352821,0.8609424241583326,0.8618891860061308,0.8614465792847918,0.8631166126622557,0.8603106695263749,0.8611937613286598,0.8661062312245901,0.8673474373271594,0.8591205042192516,0.8569005602451719,0.8580171666150378,0.8533347730531542,0.8453022811538138,0.8464760655206556,0.8433780328265452,0.8360766097035974,0.8294434327516993,0.828526075490424,0.8205631817715362,0.8117571613986835,0.8114865403626872,0.8067398811578343,0.8014833383853759,0.792455072441137,0.7837114041129307,0.7809439952735096,0.7741883315520632,0.7708253798870617,0.759435999697458,0.7501169884109384,0.7382191763844796,0.7392808752343196,0.735844129293016,0.7246065287925696,0.7198325929936871,0.7126576673302927,0.7035536745630804,0.6999874578321953,0.6962733727237128,0.6884388352782831,0.6822262266694208,0.6772246721072137,0.6675913761888936,0.6634750025568048,0.659751124195145,0.6504517436151522,0.6508072116054563,0.6412692159499558,0.6341189554511735,0.6313425065728838,0.6248374966845833,0.6201909289832892,0.6149528746124828,0.6106311914777037,0.6032482323615858,0.6045569680206211,0.5995251319875555,0.5941422172589819,0.5859339963295956,0.5868223332314221,0.5817504809210362,0.5753775333771318,0.5741499453385573,0.573427665588892,0.5692467822789463,0.5629287512423663,0.5628281403440729,0.5610409236846668,0.558649458074282,0.558362924818438,0.5509924067098658,0.5491264158539495,0.5438445134352312,0.5503643281985783,0.5417828195084569,0.541006202239695,0.5373130391254847,0.5342444136034266,0.5328228865968516,0.5339755121460924,0.533229726425913,0.5254775426075249,0.5301954728645958,0.5254578663347045,0
train,sample_0009,0.5244634985923462,0.5284664704677893,0.5232600932796532,0.5255352701051098,0.5286977892188887,0.5280735877685219,0.5322212709824858,0.5377817830184817,0.5349869013974032,0.5422149831313842,0.5394731017406638,0.5382081990271204,0.5448793615374316,0.5468442459715931,0.5515399406515622,0.5499566460515839,0.552816222770562,0.5558245808652177,0.555122987435067,0.5590678410868409,0.5611775827798027,0.5612401709481867,0.5679846226343638,0.5674852916968278,0.5687542041754567,0.5675681178476631,0.5779051203669245,0.5705176726235819,0.5688230894484196,0.5756903322563406,0.5811505434947855,0.5775797068430919,0.5822131101014922,0.582996897983381,0.5832000736891246,0.5837859533091528,0.5837697820048553,0.5859184434162927,0.5852243337349495,0.5922484281524173,0.5891271990914261,0.5848520826519759,0.5895771167660526,0.5897445651702256,0.5897689801978006,0.5846861624170183,0.5900381493772939,0.5868955598173203,0.5893305942937409,0.5855575420768745,0.5874862157536432,0.5858446477900157,0.584161491126859,0.582571408220076,0.5792772661843453,0.5845405998479716,0.5778171689825582,0.573144537989716,0.5805766806663872,0.576264644883764,0.5805053874938431,0.5773681852452412,0.5736373562333095,0.5683344894069047,0.5707044874757816,0.570542535613003,0.5700186683822448,0.5630189586000804,0.5703266503239455,0.5682387731911908,0.5669099954263297,0.5638914730994734,0.5674660252613148,0.5574741016573831,0.5643872371050352,0.5627160723612153,0.5588863088998813,0.5580324799402823,0.5549793559861054,0.5586782734598591,0.5547957301293222,0.5543892606921889,0.5562999686762403,0.5465803588266959,0.5532200973422916,0.5551889071234309,0.5506853534355126,0.546886265237481,0.5508410899197999,0.5477114153675189,0.5499178115278797,0.5528653518819954,0.550745927344219,0.5555103131191256,0.5514183509900413,0.5546987927987918,0.55095840683078,0.5549725972192461,0.5575717889608455,0.5573547075237201,0.5590892500469126,0.5569619917015444,0.5622712111161179,0.5618024424499448,0.570382706514814,0.5664547589834124,0.5728713781752903,0.5698064361512114,0.5803667169014253,0.5835745268569559,0.5829063780453507,0.591042897004531,0.5961032116315063,0.5976305312554563,0.5980456580467185,0.601857043707607,0.6105034251483864,0.6147131206386462,0.6238199056616066,0.625853621396479,0.6369898419806345,0.6401756544356932,0.6467814368272715,0.6510204519197661,0.658984232606418,0.6631781852848975,0.6695509864191934,0.6827365780808337,0.6931712748069804,0.698999059389029,0.7051939419269626,0.7116370868836568,0.7258581538219023,0.726418089900798,0.7351777766678826,0.7418091390514284,0.7571155920094519,0.7608162882566214,0.7707261741574479,0.7781444622903538,0.7840426954359917,0.7964596034397773,0.8015502169122286,0.8121027935827054,0.8184849006640489,0.8224199649010913,0.8252480838102302,0.829962830791793,0.8403266171644561,0.8425712247967192,0.8468305830594001,0.8470511533541709,0.8556921563394375,0.8654807239249253,0.8628246605116532,0.8629168519554552,0.8654948115532654,0.8737001691353363,0.8689346439448152,0.8721045983016626,0.8681225505859189,0.8691671815559716,0.864775298611222,0.8630619290054553,0.8601908482404927,0.8573202577793141,0.8559621811761186,0.8493595020560067,0.8452241944002452,0.8366609707066384,0.8319758955083618,0.8270861360416586,0.8155681320385247,0.8146657521835836,0.8008613586114053,0.7969275721948076,0.7850520009135418,0.7815371445536263,0.7715125123289623,0.7638645362511234,0.7523320345313644,0.7484851559430054,0.735279261084292,0.7297515126478337,0.717462854787074,0.7106292303260857,0.7005787216207582,0.6939722287149763,0.6812293874289567,0.6722632217646016,0.6641826850054395,0.6545048078595095,0.6480636896329229,0.6415806334656068,0.6321547016622482,0.6250605260505602,0.6187263903463169,0.607697289771518,0.6002363403490812,0.5957521545742958,0
test,sample_0010,0.556046655097003,0.5589333925260719,0.5649657263114614,0.5688754628269167,0.5732319553826741,0.5802120032345494,0.5871521287515066,0.5808489601326055,0.5955066052990814,0.5969028114281878,0.5990824127476119,0.6030587762185443,0.6073084822394097,0.6181442607072994,0.6234204976693736,0.6274881811804527,0.6348584751161735,0.6413596979086977,0.6480684333449319,0.6519895662003036,0.663819831738175,0.6652722261930812,0.6717282118685705,0.6757654622688547,0.6808187121007073,0.6901134304938946,0.6949644430547732,0.6994731650054404,0.7014748044380448,0.7077777073672784,0.711878251036455,0.7237914758715747,0.7243804299980582,0.7248155147043608,0.73621731413997,0.7303143104944151,0.743282405380286,0.7506125497417762,0.7512737271225307,0.7554037371871063,0.7607589946495306,0.759499947843488,0.7616014810143681,0.7671115637574117,0.7703724323866469,0.7720840927683088,0.7787309161939705,0.7756834083326042,0.7802733731415026,0.7840867033059462,0.77768717295046,0.7900554022079035,0.7862063314028067,0.7887111343927914,0.7909388450141579,0.792537543412229,0.7900035315502238,0.7887926477360596,0.7951430297101105,0.7959793355344216,0.7957955985944793,0.793882452565506,0.790476328190793,0.7950874477636203,0.7926635836093971,0.8002813803081343,0.7967700858146511,0.7964056698328662,0.7853134758867124,0.7947282840299579,0.789449944617288,0.7914146851086454,0.7878965528109008,0.7866415708393539,0.7872031939169937,0.7835282308989096,0.7843073758676706,0.7862613720209062,0.77815304657465,0.7769094400313397,0.780420188841239,0.7749927003704042,0.7687510359082492,0.7626549391536906,0.7642270930769856,0.7669057578665694,0.7609189672314081,0.7598357209654742,0.7591098255123403,0.7544000527167387,0.7542908486708348,0.7469678149314081,0.7435520022126855,0.7433983403983382,0.7419810140186991,0.7372128460866553,0.7278064498963879,0.7304712657796247,0.7229460931496815,0.7216143594120572,0.7146839490822512,0.7110914723038292,0.7092331866585092,0.7066686272296462,0.7065816579862951,0.6998117521198819,0.6954882446928138,0.6930083489969526,0.6831930812958161,0.6852446242004666,0.6770546363322678,0.6789743341511382,0.6731577615718093,0.6659340625824979,0.6630491815536842,0.6637940980224242,0.6567937090519729,0.6500268532245107,0.6486485104516535,0.6437849549583654,0.6425847216942342,0.6375119873960813,0.6335384302878675,0.6325048574530977,0.6322497127938731,0.6227367494677083,0.6222367017485722,0.6164642938831435,0.6153413135830704,0.6123085953648748,0.6087348467604492,0.6059074213083535,0.5979831265297451,0.593816246378431,0.5913497267100067,0.588193820020776,0.5814464002228981,0.5800252766878272,0.5754967058791356,0.5723439663631219,0.5710182650490458,0.5671976812138232,0.5648274974710593,0.557565890568549,0.5596210409918496,0.5561292185556136,0.5539715345453209,0.5518284692938878,0.5476552676391258,0.5439321610308934,0.5446418305436347,0.5386705086856454,0.5329490345829196,0.5292744452749251,0.5327910199204692,0.5297320884890745,0.5314104202397818,0.524237701810058,0.525025049053527,0.5181213724848238,0.5176131201552786,0.5181547404871709,0.5137932803206151,0.5101678436993091,0.5062968505544191,0.5090644309230019,0.508347894316528,0.5077667019684184,0.5061015804000558,0.5034547053835524,0.5015760036500571,0.5063108417234202,0.5038754091444464,0.500483238533113,0.5015242925766851,0.49868214743255257,0.4993407130811992,0.49764944587137905,0.4973576078177828,0.49585132431504114,0.4995511407557522,0.49373071601268415,0.4949269618910344,0.4930757022838435,0.4942903628343809,0.49434551274647504,0.4921967605263804,0.48853379135370156,0.49776557853257414,0.49310573343517905,0.4849323809814711,0.48980140570307695,0.48923159623424356,0.48905056056206486,0.4919554287250924,0.48838175792856586,0.4914285148893006,0.4883485211960137,0.48480390472960233,0.4840238189051949,1
train,sample_0011,0.5362460997606572,0.540185321095477,0.5458159844862673,0.5448559852966006,0.5508876552464651,0.5542975546400019,0.5528518079068818,0.5583194867079859,0.5624182477561305,0.5685548666582275,0.5702636305969683,0.5735041561155553,0.5724367206038997,0.5787776637368315,0.5869674681360848,0.5910405566468275,0.5941238146178739,0.5958624869964664,0.5980798760175975,0.6024167265416546,0.6052567808520253,0.6124092062199439,0.6129965984667824,0.6123844380840324,0.620828464433865,0.6262441858592317,0.6254499265761041,0.6319579765302384,0.6309031258554629,0.6369923313150712,0.640217507530549,0.6358671870819761,0.6424425826562552,0.6401687719074781,0.650561726442646,0.6466448786936484,0.6468517544532879,0.652494658030421,0.6544072866537307,0.6523370585382375,0.6540551143434331,0.6559594352813762,0.6529890039508452,0.6581248567917384,0.6540472823053853,0.6551381053837484,0.6562539806205929,0.6539199271748571,0.6517698260552165,0.6557550406166848,0.6520345420076331,0.6520716817414887,0.6495115408578283,0.6501976529394846,0.6468306183442086,0.647404644742859,0.6413735418043632,0.6441031091615664,0.6444733235512624,0.6405467531650382,0.6397748133811952,0.6380204748956277,0.6366920868050711,0.633926497009357,0.6272707915555873,0.6303204988453897,0.6283398212373175,0.6263156632669886,0.6308311590686426,0.6237799344120695,0.6251465471159416,0.6189410409110615,0.6187823758489103,0.615297260618151,0.6134361072531793,0.6142557756359681,0.6108337874065463,0.6167567315248741,0.6134997828827183,0.6184426954522144,0.609223173476406,0.6061145802441503,0.6135840872347481,0.608365965941404,0.6159884293446243,0.606656051965809,0.6081827487904239,0.6125581231144595,0.6097897317838736,0.6083533065485989,0.6115368452063665,0.6095462761387775,0.6170463202224481,0.6144445015668771,0.6186556577857394,0.62209412644868,0.6183695884153076,0.6211288689330402,0.621483020982286,0.6191216148043993,0.6241276383867166,0.6236483109506926,0.6297359161276417,0.6313690758656201,0.6343057509864505,0.6374514806188113,0.6374015886222306,0.6391173253627558,0.6483054907509084,0.6478592681902442,0.6447893412336194,0.6547301453433098,0.6504589434006498,0.6520657746180908,0.6564404416597205,0.6635566309612508,0.6622110749957331,0.6687749150287735,0.6711941553168778,0.6753572500929131,0.6815604557667923,0.6771483813142751,0.6800785107093074,0.6823078901755227,0.6895484156096383,0.6907994560970407,0.6924377488791399,0.6982785835430091,0.7013546979235558,0.6985090211000642,0.7085196231681032,0.7093471602156307,0.7137644709046097,0.7162149376463762,0.7173666909701869,0.7260195442634191,0.7214777099997068,0.724703295763122,0.73064537504834,0.7334126134273804,0.7329272599382367,0.7408491278172248,0.7401882823157547,0.7358414924403398,0.7467501220146401,0.7468833116289358,0.7454484079158081,0.7482451298798406,0.7477704211967457,0.7490884618280896,0.7453730850164398,0.7483451246088676,0.7535983257976304,0.7491204201805475,0.7506642207730072,0.7506479934662165,0.7451226971934863,0.7427358695140127,0.7416176565573356,0.7429190906584524,0.7482639114973575,0.74232872339853,0.7380401801977212,0.7353611065698437,0.7283678975155754,0.7284065657091432,0.7271725231544108,0.7164280059462729,0.7138993349350011,0.7097701690559622,0.7095112255909819,0.7023816711811082,0.6986657213763087,0.6940185320162016,0.6894098362824732,0.6870957512448184,0.6789201169051199,0.6763477861574367,0.6729975446416331,0.6578915308732445,0.6567972936457271,0.6517369169713285,0.6486903782087297,0.6399908035763633,0.6377580322673652,0.6292097339595564,0.6254729546036298,0.6158051908931239,0.6135214467075439,0.6081157173584492,0.6011663166008241,0.5952284563971146,0.58767478076542,0.5853486388940196,0.5861580151313227,0.5767444637862634,0.5734350669911586,0.5668927315142569,0.5680691553225665,0.5584617884088546,1
train,sample_0012,0.5134692765042778,0.5145850674099883,0.5174289322017352,0.5158839087259678,0.5149843788501287,0.517796221219547,0.5166475112556205,0.515284179344525,0.5215698999548809,0.5231970783364971,0.5193558942235659,0.5216966685454575,0.5280794033808753,0.5304805129050492,0.5277102898777755,0.5289862833589836,0.5284516624637049,0.5268229376358948,0.5296215750619658,0.5353184278360275,0.5342631123339975,0.5334156030242914,0.5349072624529405,0.5360651076736893,0.543888055985723,0.5474989488536905,0.543844879321328,0.5451799393607693,0.5488647252664992,0.5484779687688723,0.5438235613924907,0.5520712984849087,0.5484676576813639,0.5525340208851641,0.5590117094935597,0.5617209231546856,0.5582032619807367,0.5561690984806034,0.5589676596379252,0.5629314005270155,0.5677962566325603,0.566300826587964,0.5685539019973573,0.5651865428031853,0.5684906705718971,0.5705545685002924,0.5747706920072772,0.5751546280636332,0.5796171320700617,0.5782350958437791,0.5854433875286076,0.5821255579578383,0.5815214533868678,0.5826299687762122,0.5876157313731483,0.5880017269183139,0.5958016257509023,0.5927741667898293,0.5987712841233017,0.5977038752764743,0.6015323827151696,0.6063482798569114,0.6030998695534207,0.6140828577861933,0.6087336673404738,0.6147456640873765,0.6176923405143232,0.6171665041173096,0.6252035558339359,0.6251356342068622,0.6336899138661521,0.6354933595048984,0.638961788658909,0.6429987430925089,0.6429156899242103,0.6514783781875182,0.6584568200951825,0.6617317652346526,0.6669461646862116,0.67523109557807,0.6783459302210053,0.6849601183798656,0.6903941639984938,0.6952220797883477,0.6997694880783524,0.7049344589497095,0.7155083901224967,0.7180065229383253,0.7236627390519519,0.7313510503742902,0.7337449145699015,0.7416941776800878,0.7471764035325769,0.7622594509705511,0.7695336823326736,0.7769178634006126,0.7804213676474481,0.7853474648902994,0.7950235679610177,0.7972676426157914,0.8121285224184098,0.8096951901056221,0.8182356789088021,0.8238206033831923,0.8289305961137239,0.8371979548863548,0.8410054508158793,0.8416384991204934,0.847039553050623,0.8549627481030493,0.8601809785641119,0.858703404247928,0.8647428262838147,0.8657665320413033,0.871476083983338,0.8712845992974105,0.8707202947334837,0.8754759687095972,0.8747861168989395,0.8710739001229519,0.8718071504806513,0.8745030805381386,0.8688063152785479,0.8676363096316575,0.8662304165318064,0.8656587014380257,0.8597322761061686,0.8567259694679339,0.8556907667948801,0.845916088118746,0.8424938849447137,0.8386907388285955,0.8295703077799917,0.8268626225185991,0.8240764297524157,0.8097994966149911,0.8073996256945435,0.8036576163324065,0.7948053082319292,0.7887951245460475,0.7726281943314401,0.7695325758212532,0.761151351089921,0.7534822545374535,0.7505367944624225,0.7431349510509102,0.7342536394950198,0.7244304363659373,0.7203258065066955,0.7073091420089317,0.7025890517523755,0.6926269528647235,0.6879599270071685,0.6842705075283975,0.6701867017664171,0.6680374084541918,0.6587170694105928,0.6546406958151274,0.6490658673348588,0.6406073133872429,0.6343852373061358,0.6288459586276368,0.6239370876897101,0.6173851925257083,0.6159436114286848,0.6134770487796783,0.6005149331132349,0.5944741242047855,0.5910834815390734,0.587281635338734,0.5790829149351623,0.577260659256147,0.57306982549459,0.5712756019890712,0.5698084771563229,0.5661950846255028,0.5595371927949142,0.5551042389739113,0.5553626576923957,0.5472157511569128,0.5520810518456666,0.5413998339487456,0.5402129074887314,0.5405687257056165,0.5390694199937496,0.5361804083347096,0.5292954398162739,0.5251461003555626,0.5290084501352579,0.5274622847175888,0.5226175540489393,0.5265317422402614,0.520546468379171,0.5214372601444432,0.5159336972924032,0.5147620924222354,0.5188680671060396,0.5136529461941802,0.5161906457713268,0.5170616018465751,0
train,sample_0013,0.5024454407149529,0.5001075195907935,0.5065095915251182,0.5026991511966212,0.5004497038344787,0.5028361655130665,0.5013685799434848,0.5047608443002498,0.502028068674341,0.5025857404293192,0.5029441579093468,0.5029175638431175,0.4983955003175592,0.5035325589229303,0.5022650261834941,0.503864700271678,0.5069859069572787,0.5126483203096843,0.5070581131452908,0.5063493540155826,0.5107542389460046,0.507669752192836,0.5097582781949216,0.50766152369741,0.5115198664276228,0.5117029636766957,0.5117804822072617,0.5128134373485873,0.5193427551962698,0.5193822335200541,0.5175649472800758,0.5209091609513982,0.5285330779745175,0.5287516444289917,0.528970542362998,0.529587002687198,0.5343342975810645,0.5284502079358331,0.5350696506183816,0.5438649462892777,0.5431692608484144,0.5441398914284631,0.5521156932618169,0.5521263755532078,0.5534318592540085,0.5581834411761868,0.555249261848259,0.5598384385152689,0.5717137993185569,0.5697289405058894,0.5785256409563244,0.5831625876690292,0.5783021224398688,0.5885505480401992,0.5926296019226248,0.5976722161230626,0.6015510430158517,0.60895038517768,0.6146084005457851,0.6159250357603065,0.6230753174545928,0.62130978242559,0.6332592674498576,0.6361629110391293,0.640673460376206,0.6450838462799549,0.6538217385775345,0.6576427780679673,0.6552852194057476,0.6679712598967968,0.6716544815643846,0.6758052341595401,0.6818227867359667,0.6872406436839772,0.6957576056144661,0.6998584202625886,0.7002773902333781,0.7131226065167324,0.7121336791628803,0.7190981306748052,0.7295395065751062,0.730857423710892,0.7334215516502385,0.7441010569532813,0.748681905544254,0.7549131880298047,0.7610040980263402,0.7679821187004873,0.7667509944713948,0.774735138894481,0.7764810900339716,0.7817495087836949,0.7861202184914,0.7922433200554657,0.7961093951530315,0.8009535913741259,0.8016605167946609,0.809030229378232,0.8183873595529463,0.8177761050135565,0.8188178291502282,0.8282926080672981,0.8303007070497163,0.8326561841179975,0.8334940850617574,0.8400867215876223,0.8425359342150542,0.8468588216906572,0.8476695164785064,0.8526014561140117,0.852100520059762,0.8513704113269112,0.8554388821098624,0.8579226813541434,0.858354788690415,0.8551037447757714,0.849569312927529,0.8497222192305787,0.8513154461317167,0.8481388070252996,0.8537963301321252,0.8537454096583743,0.8450419892335139,0.8489034765538388,0.8410036741493027,0.8372304386686065,0.8372838793145089,0.8309669963895696,0.8322207841087692,0.8262323597258572,0.8221999247545413,0.819190006212928,0.811147030795395,0.8061168709232012,0.8001732281131362,0.7918659161496235,0.7841167444630607,0.78074331839816,0.7756748154659312,0.7707365785642477,0.7681339990578515,0.7628730980948251,0.7503753781696891,0.7451118851359327,0.7383300714226102,0.7296504619888603,0.7301656232412324,0.7205148609976328,0.710741952404453,0.7116696603999495,0.699281960165343,0.6962553580777254,0.6904700885013437,0.686426131871518,0.6808664282134727,0.6726500593386812,0.66806484924967,0.6606207876567622,0.6580121811235292,0.6515907747499312,0.6418386386255436,0.640508209034061,0.6381232177616367,0.6234397014991904,0.6240763712233527,0.6233971710858367,0.6165363601223015,0.6130820966051953,0.6046638465317019,0.6024778264489682,0.599166695663401,0.5941870722367167,0.5878414261173952,0.5855947149840415,0.5843994532569735,0.5806531422119509,0.5762980357454001,0.5741603635552557,0.5726778248885914,0.565676296121952,0.5581275663485123,0.5553044960640819,0.5594676915458685,0.553364962486043,0.5492214137154521,0.5463188592147237,0.5458181728972561,0.5475818506996551,0.5442748514451132,0.5385730559463532,0.5344398809956861,0.5374216454206896,0.5364145858695102,0.5342362096672781,0.531348308673981,0.5300549157676641,0.5292653948496292,0.5226502811496644,0.5216073776788847,0.5205147257429509,0
test,sample_0014,0.5711058495188596,0.5769498697978616,0.5828069653673149,0.5857439728844562,0.590265212197656,0.594173847111707,0.6001940281425909,0.6104017920614683,0.612893109347258,0.6232012177742483,0.6290528387357703,0.6348423027497343,0.6388307150090483,0.6439736233243574,0.6517126731725607,0.6618260220731538,0.6624024268617885,0.6699981798657617,0.6785632074296333,0.685978410606606,0.6887864063578828,0.6978183129222976,0.704455938521672,0.7117544761250305,0.7185656150031586,0.7215397734747774,0.7262664912859517,0.7336050863942769,0.735261938728136,0.7419946933464012,0.7490934405526978,0.7499642518491247,0.7556841080960441,0.7600730747832499,0.7612400838168653,0.7690931982285201,0.7698174630533912,0.7730061453264254,0.7769870372972087,0.7759068692813555,0.7818912228973935,0.7830645411056838,0.7874111889396267,0.7813002974720115,0.7796839723175435,0.7828728542009007,0.7805469394552038,0.7833452005081043,0.7809854938055567,0.776238652265475,0.773416440763051,0.7747444594347681,0.7703398108945927,0.7689125516013975,0.7680025360974227,0.7619882121510477,0.7648201519876895,0.7569578523100589,0.7547321968212253,0.7503097559713063,0.7443116413676594,0.7423973556068618,0.7391385668239203,0.7334510352105582,0.7338363355729784,0.7299142620991848,0.72445399436798,0.7202596335224487,0.7154599298214646,0.7120115097776247,0.7071011865111176,0.7042099511188348,0.7066043735832761,0.6930851483166731,0.6921744604492502,0.6919268476096593,0.6877539111058755,0.6849477845228158,0.6775050006880349,0.6798468661082857,0.6732263893062228,0.6759405406322418,0.6710926939361397,0.6687539451082417,0.6677786358645775,0.6629698682365675,0.6618568315174119,0.6573514832853964,0.6567495873045759,0.6567954734660386,0.6550678769582218,0.6506933271910111,0.6533377138254389,0.6514571191674471,0.6499737673877293,0.6457917317551904,0.6409500939544489,0.6467147062500868,0.6430200052283016,0.6417019802456702,0.642729207419672,0.6424287916898005,0.639515533696128,0.6392437467095958,0.6363187502989022,0.6403843501215951,0.6350972862365571,0.6356325945113803,0.6410597312704567,0.6383467750509833,0.636034741472415,0.6356808037152569,0.635537072671235,0.6331743596241748,0.6355418610116295,0.6349546208686025,0.6332731112649418,0.6324363940389668,0.6332158881320172,0.6336311707508984,0.6337666047744321,0.6348605576000029,0.6326815957113358,0.6331129643191837,0.6316016126695143,0.627381123259926,0.6302270168122267,0.6306690215162042,0.6251814119057175,0.6256765806530107,0.6324053382164279,0.62575223378142,0.6276827045930846,0.6246949181850897,0.6229562315272225,0.6243160930504429,0.6215777829784546,0.6215856814671379,0.617100987708623,0.6201168071625209,0.6208748381533047,0.6238595520318235,0.6187240600832424,0.6144791231417019,0.6170541564811753,0.6114868476334449,0.6122016634590962,0.6125554501916667,0.6081839316725421,0.6085027362133448,0.6059789918104447,0.6097341301175349,0.609008131521654,0.6069879288028546,0.6023730351234514,0.6032351891808858,0.5998083141019769,0.5954235415051311,0.5995345820043686,0.5948351772683977,0.592723045649833,0.5915032442308094,0.5913670003590177,0.5859704123866417,0.585889556572365,0.5834146819247051,0.5815473168109541,0.5793905331596931,0.5801259882836515,0.5753640327688458,0.5730807573842288,0.5692207203340831,0.5736458873417467,0.5674269772438787,0.5651388002027022,0.5627157429548539,0.5629606439877815,0.5541805528725077,0.5574107994473784,0.5572522674264799,0.5504030411484774,0.5520864866268776,0.5491594260398308,0.5440524752115292,0.5439214152051065,0.5440195354766348,0.5365985536127508,0.5403374140337608,0.5364277988698343,0.5364776204589249,0.5291953674946113,0.53046659261934,0.5297512708690837,0.5291530425840029,0.5244517553367898,0.5240899260521856,0.5203715439357112,0.5162347499345438,0.5106516734404009,0.5190044678678727,1
train,sample_0015,0.571731660012172,0.5793316906925203,0.587043322402037,0.5897188494775749,0.5959207893949268,0.6000791001647751,0.6046052555387675,0.6125514357778394,0.6168652965592699,0.6204684171377263,0.6298132048461116,0.6353826874771284,0.6435083609803808,0.650483497249285,0.6543132909658137,0.6643856030671665,0.666728723350481,0.6735508264163259,0.6837193494130296,0.6874809765908584,0.6936537918435104,0.6983623599817876,0.7076196892010033,0.7187679645845515,0.7193605673154473,0.7269477629906095,0.7268741465085738,0.7322635527826626,0.7401563459287644,0.7472347089655594,0.7518249727926718,0.7500841803633931,0.7558173600656394,0.7575478766099593,0.7613806558020142,0.7644149160468985,0.76775778349667,0.7708134232122922,0.7649714142264111,0.7712094970734065,0.7690850678481107,0.7676016971584916,0.7688405192945464,0.7719348607658943,0.7688769948270358,0.7640623182176332,0.7630651764134296,0.7539420985248899,0.7545956660181432,0.7557233970647514,0.7533052015165252,0.7483320248236716,0.7432030528883093,0.7371364595971361,0.7356631517523122,0.7309858295473367,0.7222419475045054,0.718997551896962,0.7088055326612256,0.7098587210279881,0.7018317149905503,0.6917501660595642,0.6943555087768567,0.6838279748368269,0.6778236215939267,0.6725317576246389,0.6630818888427985,0.6569329357981211,0.6521440343960833,0.6494538828650499,0.643970220411908,0.6418877177970062,0.6309576594637863,0.6228574654541091,0.6238836794871921,0.6157148945267549,0.6095593445154786,0.6043107844935738,0.6031616511790925,0.5998012352100615,0.5928372559764415,0.5907023833370041,0.5864275460492991,0.5827123760323399,0.5773470389206632,0.5783973208000471,0.5757307126774038,0.5744082082157901,0.5742249177270873,0.5657673844196378,0.5660857665640239,0.5639542323151402,0.563945144030342,0.5645477932127375,0.5612117684156497,0.5622260642885535,0.557596437512245,0.562849765210742,0.5615559892595601,0.5580632015707516,0.5610279213287594,0.5645410252759742,0.5600900811738071,0.5610966720376979,0.5669208969776016,0.5643858847472185,0.566508016741899,0.5704763046631147,0.5709101332212939,0.5743302575564118,0.5711369567679406,0.5776740483667204,0.5750826474197092,0.5774238801687458,0.5856571712042463,0.5850285095048438,0.5931205322581835,0.5902138590045509,0.5930858322121887,0.5920602497080116,0.6033410715365144,0.6023574713743112,0.6049296930468094,0.6103992560248228,0.6151878920545762,0.6137975835038836,0.6211986890764534,0.623852456619523,0.6304609908469453,0.629477294543234,0.6347374622670272,0.6367091434798532,0.6413912719232442,0.6445164677357085,0.6466464532756798,0.6526259122788065,0.6573883699899538,0.6630462372612651,0.660953615692841,0.6604397020330373,0.6705206870320477,0.6715979056602626,0.6726736857415706,0.6799408273840817,0.6834475662545404,0.6853137740205227,0.6898620050196733,0.6924706357951078,0.6911697076670037,0.6943582025477276,0.6969670769298923,0.7005820312163424,0.7023671305922492,0.7024501745920425,0.7065507062613843,0.6980715618378167,0.7006420465034389,0.7031893074600355,0.7011244709927191,0.7015089265250947,0.7057107391741159,0.7007909904997445,0.6978164306400502,0.6957675578926413,0.6936418606793889,0.689686930707772,0.6904859266146346,0.690023751301477,0.6840108079703459,0.6833159544980589,0.6799829512787126,0.6760003240478997,0.6736790527606538,0.6674278847608859,0.6663775127300782,0.6616137263686779,0.6508452617913987,0.6527353828995859,0.6433443002267373,0.6366789697536572,0.6337876590357808,0.6369580142722098,0.6249934305826893,0.6178097202033226,0.6207083001345376,0.6113189831518168,0.6105726693654323,0.6083268696341149,0.5996825632396314,0.5954765683894278,0.5906397418412153,0.5858228507613755,0.5854673354783615,0.579761911984519,0.5770342008210455,0.5730649934631474,0.5645088238335892,0.5685779049930487,0.5589680133153649,0.5540820246482632,1
train,sample_0016,0.5704690399150018,0.5773421147890226,0.5820925747397946,0.5846596533312663,0.5896842196348062,0.5958860932633956,0.6027462504223152,0.6053689000936745,0.6152063982946853,0.6204353444038969,0.6297654635625983,0.6309681841309331,0.6398752962933725,0.6450267953763885,0.6527799158885481,0.6578468894716774,0.6660739083423433,0.6690388649103818,0.6781714000382191,0.6822373119249399,0.6927227589452977,0.6996304192168055,0.7000723830256026,0.7021509013236189,0.711521643827488,0.7206303598198884,0.7220630439829843,0.7278945241594441,0.7293302648372556,0.7344645618768705,0.7457220682201016,0.7437411372415887,0.7499632093670066,0.7515038093607089,0.75524560777308,0.7623402988755952,0.7587010917822616,0.7641469222593043,0.7649287457631255,0.7611599576520311,0.7626889375901809,0.7612924842806528,0.763460612814614,0.759573290255066,0.7624751824433155,0.7570899634588287,0.7608118317475119,0.7508549610474391,0.7538539910056472,0.7466579046589041,0.7458484660432602,0.7426214156212766,0.7376647331812638,0.7337568614667875,0.7299350891023759,0.7245630510717762,0.7196839652880558,0.7199184097765554,0.7123227290260737,0.7074274951394881,0.696016315512775,0.6986858347577868,0.6920906154315039,0.6837606733970053,0.6821937719679485,0.6766472561722311,0.6699188108637562,0.6608250857617559,0.655652879380099,0.6516230848226753,0.6488206273196774,0.647120923458061,0.6371482636332759,0.6337840672527146,0.6295883039240948,0.62527692684414,0.6217422848819939,0.6222160077645034,0.6189490305955204,0.6153336069122352,0.6113661833853077,0.6030026848002854,0.5989350811726377,0.6022336895923093,0.5989752215749408,0.5989028725971915,0.5932580658223884,0.5971865949923636,0.5953317666826057,0.5965926798315959,0.5896853840574704,0.5911789579811915,0.5948004244958903,0.591652035435401,0.5976068742390732,0.5901648569882596,0.5954944088476615,0.5942824467631532,0.5930632851820439,0.5999442588396751,0.5988272689246615,0.6007566667995965,0.5995573044583558,0.5993178951904797,0.6035503184179191,0.6050923218861575,0.6056786750447031,0.6086987950564585,0.61110098441771,0.6103358471449957,0.618949270020603,0.615438510614327,0.6238629608102602,0.6191907255557909,0.620402479131342,0.6211235798640979,0.6320795490385358,0.6246062342050464,0.631039849246336,0.6322737840892491,0.6324823301883236,0.6326503873633401,0.643350392773044,0.6450822054373836,0.6460344393348976,0.6436953366475575,0.6460195962047652,0.6484885032468861,0.6532675360840556,0.6547223590970326,0.6552228682608765,0.6565192526717485,0.6558106610639137,0.6601913701605387,0.6626320181131087,0.6667505088829683,0.6616834871424718,0.6693935199870129,0.665701645423699,0.6653808676264987,0.6712230847896496,0.6685320394046257,0.6727721749403721,0.6687416519862444,0.6716876374820641,0.6706783143976538,0.6720934916930198,0.6758459900372387,0.6764198838666132,0.6698614783465452,0.6723941050901436,0.6724905457320294,0.6731374686888617,0.6717581109900512,0.6677271309207995,0.6714256938658659,0.6650443704859144,0.6676749746600001,0.6666127337613905,0.6590669139571853,0.6664529625026505,0.6591967159017577,0.6587003381385517,0.6583467148824421,0.6545075605688467,0.6519914865510938,0.6474824576314633,0.64567425408937,0.6400068243167483,0.6394651932703784,0.638121212928898,0.6389074533934533,0.6334068331947661,0.6229362753112998,0.6214584493998272,0.6208365336332007,0.6135710402817817,0.6156393754054512,0.6108983095476916,0.6052757374004821,0.6060797142932209,0.5988038408850048,0.5981719651616147,0.5912956152410079,0.5895271584032126,0.5845960190561814,0.5778515299362728,0.5770941304117567,0.5695161273527272,0.5704316205589874,0.5637926729397372,0.5644369625546459,0.5558909844472284,0.5569272859552787,0.5548754509315028,0.5488591985421883,0.5435012489226131,0.539849013235617,0.5381706045549043,0.5391686909896991,1
train,sample_0017,0.4978617827948766,0.5047170350988232,0.5018478503067993,0.5046383357799925,0.5049742680680859,0.5064744370850389,0.5043630673695304,0.5022173891081692,0.5110191535217596,0.5050931495506967,0.5061942933831464,0.5049826099464856,0.5063744598112015,0.5040181094430206,0.506997661202125,0.5116094800000656,0.5106438271993919,0.5140036037282817,0.5105250924228267,0.5144490890435388,0.5175115762024667,0.5261892384903634,0.5203647951916786,0.5222080424163781,0.5265397419014937,0.5236942411937333,0.5267722083527262,0.5305553133491587,0.5325371817135524,0.5412881988003937,0.5377613562638291,0.5454389459835624,0.5490488647234049,0.5482935157936313,0.5515181797078965,0.5553385914170493,0.5581769643473953,0.5588447408655167,0.57112431771621,0.5716430789350462,0.5766804027435826,0.5841312557889508,0.5850873232318674,0.5909228251129851,0.593966473253225,0.5964901689569951,0.6073419112860539,0.6134611742242658,0.6168623125873168,0.624908856591902,0.6339934269700189,0.6391368415067165,0.6421463440048254,0.6532224876787845,0.6547154543618867,0.6596403231696488,0.6729357887954789,0.6764257808792907,0.6836147980017735,0.6919167383377389,0.6982899452049456,0.7049759316721047,0.7096346304259045,0.7186139012543061,0.7257920752136893,0.7326244656256433,0.7364301085491513,0.7446223841851489,0.7469711001791817,0.7528550351856627,0.7579814518666228,0.763004752418095,0.7698987672771631,0.7690389175273049,0.7764414493136045,0.7812560112922461,0.7813475270739385,0.7850197376381034,0.7930247509576402,0.7911360172681541,0.7953091658609133,0.7971877652319426,0.7926492600097426,0.8002793718102816,0.7989895198099556,0.7970064658206175,0.7940661388232151,0.7994260470714487,0.7993064105544747,0.7983581324649891,0.7951611345045055,0.798390907199932,0.801350249728714,0.7902706216953181,0.7926131780054051,0.7904693549552121,0.7844551700766534,0.7817849384730722,0.7835516416480857,0.7802801419412534,0.7745642542388853,0.7724288317206092,0.7764324219637728,0.7667865419553275,0.7640527897236109,0.7600577443516636,0.758607585682413,0.7568601849034657,0.7562860245133786,0.7488324280923747,0.7483442175939796,0.7450366360754361,0.7410884229929506,0.7375041287722337,0.7355042471357003,0.7284033975509205,0.7301207412105073,0.725464312143222,0.724763263813152,0.7185230209583593,0.7209402063514234,0.7129891894474353,0.7143025232225018,0.7116196041411101,0.7072771333978045,0.705067582181216,0.7061559845209964,0.703772554035834,0.700701405604097,0.6945796238504938,0.6911364036201619,0.6984806405019147,0.6920862270322324,0.6870485851337506,0.687069795824549,0.6860389442727377,0.6894096626496439,0.6847727660392214,0.6805409341714771,0.6808852800421412,0.6837593332260158,0.6790964601258965,0.6832597884989158,0.6783310569439661,0.6760142036186645,0.6745782963096687,0.6711212371737052,0.6730093504346497,0.6676778480842018,0.6656689748175308,0.6684414035080879,0.6620861509680125,0.6630695703224626,0.6578359413522875,0.6611710408386833,0.6559546859034519,0.6532619644281206,0.6516014376408599,0.6504445541984067,0.6481037204111859,0.6435651656059509,0.6456135627857521,0.6410842550741278,0.6429830255196706,0.6351956318153844,0.6325024454230367,0.6285798146960668,0.6295464835233501,0.6240519744449636,0.619904355061621,0.6179065645078136,0.6130158613845065,0.6108460662903272,0.6060478349225731,0.6093460808488439,0.5972335924163139,0.5965177332672407,0.5946162160433348,0.5898833895421745,0.586493516505803,0.5852496851728983,0.5794637605871423,0.5770421549459963,0.5744486372553127,0.5726691242996833,0.5631714160797469,0.5654199157052543,0.5562831639986265,0.5555895903446889,0.5546829539871867,0.5511351669024415,0.547163867701337,0.5414164844456151,0.537849072504473,0.5396415154881572,0.5344887245389888,0.5378366170537396,0.529610584169856,0.5316459468816195,0.5265631461255772,0
train,sample_0018,0.5873136590419596,0.5934260944525767,0.5960141642798356,0.6061114622726625,0.615736138214535,0.6167044285082098,0.6226089878026142,0.6333798035934634,0.6403609148007552,0.6472903839955713,0.6514106259801551,0.6654892421770933,0.674742052954047,0.6757212482485038,0.6811511002472028,0.6958286126924863,0.7026268009377459,0.7109160036773161,0.7199905854883019,0.7242021712017908,0.7336473868474112,0.7375228969581956,0.7475100046574992,0.7550474060253274,0.7666323779834525,0.7711641345160951,0.7748941648731411,0.7858743157476369,0.7843237333062261,0.7933766265701435,0.7974987625758497,0.8001964406155659,0.8070837621283777,0.8128655032858062,0.8126964326796731,0.8225346916316383,0.8237290898518422,0.832211244653537,0.8259965563652449,0.8325683679006086,0.8316918636624703,0.8319009530039573,0.8325699689386681,0.8314546099986538,0.8324607579652594,0.8318306747202557,0.8323800690440823,0.8289399466221734,0.8286271772942602,0.8242340142329991,0.8195177054033352,0.8150463217697068,0.8110157767835714,0.8156772092617869,0.805126581546433,0.7969846588664591,0.7959478044639312,0.7909424935604719,0.7854122655021046,0.7755882727948282,0.7738396569432064,0.7629256979691417,0.7604836993486944,0.7566586752939688,0.7512283199281519,0.7449671158398586,0.7364091413774624,0.7294148103819129,0.7245006947041235,0.7186499156348931,0.707934775419341,0.7070771754499735,0.7024132978092509,0.6910071843653617,0.6873568239573261,0.6818221480067292,0.6779010552523423,0.6747073165911146,0.6669499659409569,0.6576793061503708,0.6551734067305598,0.6543990018057532,0.6406872503719846,0.6393147183765597,0.6357475862753362,0.6295000110483224,0.6234515180099508,0.6231749751636655,0.6156194445498618,0.6115835176476953,0.605461963219735,0.6067958538259911,0.6012165966973808,0.6041447135170606,0.5930621979795749,0.5941128844611774,0.5938517664807967,0.5828622889846269,0.5858987872616253,0.5817509346890581,0.5778537495401306,0.5768268293485357,0.5726116263406069,0.575160204758134,0.5742980157236525,0.569966683712244,0.5696770492118591,0.5726024784386563,0.5690662840471274,0.5639928175332977,0.5682637286827132,0.5672641910417309,0.5641305735440406,0.5651791976922118,0.5696164510012277,0.5664978349370624,0.5659887087207747,0.5620748861304914,0.5603825077459772,0.5634173444793726,0.5680710544513601,0.5624269760911333,0.5622947302557941,0.5713611642123065,0.5682757050055659,0.5686727261623119,0.5692039037946212,0.5729982658044569,0.5712391612507921,0.5753978723949963,0.575430727190836,0.5790032473474847,0.5757212015811703,0.5798960134022396,0.5810027059654729,0.5860288241886611,0.5869047689691758,0.5836395819914153,0.5901598732235962,0.5892025114234085,0.5892593125980408,0.5918070652870662,0.598294413730887,0.5937031197120791,0.5979960517950429,0.5992839039828971,0.6008818219291989,0.6032036307970824,0.6063601543437283,0.6010272804186192,0.6034483519849879,0.6037704488972968,0.6033885763408703,0.6090299154001081,0.6095785218260241,0.6116736498030872,0.6054170606117957,0.6103299014299668,0.6083503493169355,0.6115429115781229,0.6100262394308269,0.6104714062551746,0.606047013954814,0.6039828014790897,0.6064742682680705,0.606181100266881,0.601470877833574,0.5996547031202047,0.5974951929907009,0.5968774236318533,0.591639423786639,0.5921579499593298,0.5926085488736397,0.5875832721212791,0.5825818485813492,0.5777997414760139,0.5886153235539479,0.579772083535263,0.577473158083105,0.5750559548062361,0.5720609041951903,0.5701740069107416,0.5682206433642474,0.5633869396318374,0.5640323984391773,0.5630460084006444,0.5605261267394223,0.5561410175513469,0.5516885818541039,0.5495376872748804,0.5481008003672974,0.5466338462582874,0.5432134314421739,0.540424063410668,0.5357568745675971,0.5365947811113007,0.5320342877406011,0.5331274378905427,0.5331614495550178,0.5282730931990882,1
train,sample_0019,0.5486492555987721,0.5491673959941451,0.5526370906343478,0.5525616876913987,0.562506970221673,0.5646325791183686,0.5700765433796371,0.571237186725041,0.5777052132403777,0.5817468460936964,0.5802544164683342,0.5867971873901845,0.591216210647882,0.5957512994935473,0.5953983845431258,0.6077683908417996,0.6068844554578472,0.614125469726269,0.6190746360732239,0.6194931790235138,0.6273795453246125,0.6269782982334251,0.6361934944995895,0.6397073909882898,0.6417178565207479,0.6479189465291254,0.6519359189148248,0.6556470562348681,0.6591948234240235,0.6614727050005524,0.6600571968210633,0.6626180703940886,0.6695433005715714,0.6673242570822007,0.671093182229895,0.6700580297297964,0.6725059449117163,0.6731093325941848,0.6734834240330526,0.6794097482864043,0.6803565885748304,0.6783512621281751,0.6787630428271968,0.6793045581075801,0.6767623079008716,0.6782965942983372,0.6759943688005579,0.6714005969983823,0.6742452432923737,0.6698281318678164,0.672086413611938,0.6643085811050208,0.6628898516508985,0.6651063494396086,0.6624344691744479,0.6585498198803295,0.6540086379115814,0.652864075883169,0.6463539590946547,0.6457598018004034,0.6451297523689699,0.6421285937268731,0.6360019782417312,0.6347665694185711,0.6320859167944102,0.629191184734715,0.6260176225910847,0.6193336667593399,0.6201351719009245,0.6160961282490847,0.6173221640486433,0.6165489488350636,0.6114661114468664,0.6127535403950141,0.60886585985428,0.605997306970526,0.6021923379386804,0.5994970140281461,0.6034241117342714,0.5998192998807408,0.5988766664811002,0.5993402154602615,0.5971121701023152,0.5997692059826224,0.5940661136313209,0.5906248490596673,0.5953538510136855,0.5983507548985716,0.5956657980547475,0.5990096844972163,0.5975703139186088,0.5986840867595231,0.6013110469263306,0.6015508843832867,0.5985829379269223,0.6077015383323858,0.6111890191220922,0.6092567204216776,0.610945736093208,0.6095885088937869,0.6103788283068666,0.6158563754318976,0.6226941015311462,0.6195987928582466,0.6267149506228291,0.6287853370428818,0.6311089878872798,0.6357520020343415,0.6395274121559668,0.6418282103865729,0.6423457876379755,0.6493727849241409,0.651463266822649,0.6522208192290664,0.6588979189368,0.6575970401653581,0.6668032587849985,0.6662962735425043,0.6685287474421348,0.6752208403638285,0.6742621356115601,0.6816395035310423,0.679909178268067,0.6858235507192328,0.6901969484200849,0.6912097805003496,0.6962809940096862,0.6961688033217962,0.7049570528346151,0.7035145762574506,0.7066209252655629,0.7146993998869353,0.711438182521385,0.7126627554945542,0.7214965726285484,0.720377452503669,0.7205546238742896,0.7300408248233565,0.7283750518479536,0.7388447235263556,0.7388927691662542,0.7360658165026428,0.7391855831780049,0.7421645412725995,0.7419636104573097,0.742234876466964,0.7467281386183122,0.74899043191606,0.7488779258569378,0.7500012251654719,0.7490262604951485,0.7489370801450357,0.7534597393424558,0.7495610977379236,0.7501986111943224,0.7489836099521171,0.7441048217252424,0.7479041204344921,0.7458712916599266,0.7432872081064658,0.7369998829705737,0.7411838538382999,0.739654985134135,0.7356711822173745,0.7297470081952757,0.7282910928207573,0.7248439070728468,0.7173486098791643,0.7172253115039211,0.7104818489567777,0.7142478113246344,0.7051054257507847,0.6981461982386624,0.6931047561845757,0.691584370856603,0.6891282600721823,0.6772405813262871,0.6707365617256774,0.6708981550981606,0.6659342350318425,0.6554730495709331,0.6567871623125776,0.650382520175809,0.6442535046122888,0.6337082933221987,0.6269038633789057,0.6283656479961948,0.6192105202236255,0.6160180752340203,0.6106664189135969,0.6097702332350673,0.60139669238361,0.5940660226415317,0.5912955992271417,0.5861433054092164,0.5777881525078226,0.5807547673557295,0.5740621194453172,0.5683451382483291,0.564399670833699,1
train,sample_0020,0.5105850746973355,0.5096954474551566,0.5090233893902409,0.5097398866529329,0.5099932621652812,0.50949805179939,0.5121218876264321,0.514571375582372,0.5179675233236757,0.517714540282849,0.5150644250428672,0.5172065250328794,0.5199677672325541,0.5173382159464603,0.5188982797497228,0.5214672582408137,0.520258233902229,0.5263620827391795,0.530079167476251,0.5268952424093911,0.5284008512763241,0.5337438905822376,0.5333667283862371,0.5340997119069567,0.538627587139794,0.5356303869780057,0.5413660594816977,0.5370386166905876,0.5411888352078859,0.5458270745788075,0.5472182213222675,0.5452792547151988,0.5467013949976858,0.5549895603367954,0.5528458714760653,0.5567232661753462,0.5582742355140619,0.5610127254855399,0.5606835166879517,0.563479296759925,0.5669275746810195,0.5665000844577042,0.5725404950424313,0.5767125963729898,0.5739040420698867,0.5768465319850332,0.5782995253073802,0.5802097057428837,0.584386408643891,0.5905100654257133,0.5877747261311208,0.5912072050953272,0.5948465147160784,0.5943812814791918,0.5975047165490976,0.6033928486702983,0.6112916198009167,0.6084127781763196,0.6112696893278595,0.6143536925441551,0.6224896795970435,0.6235694458123282,0.6243874807923475,0.6255226474560633,0.6258579929582729,0.625144132300942,0.6349376623516327,0.6307164619719705,0.6362208708719426,0.635582133551071,0.6385473128165511,0.6421503040146511,0.6412810117265726,0.6399411170280598,0.6449920781943331,0.6461694152895405,0.6471857785762876,0.6469319219314131,0.6518419512801448,0.6544999306651893,0.6561137534527596,0.6517626268443579,0.6514274696895896,0.6504520010971316,0.6501680102335116,0.659301822753245,0.6582698599289278,0.656338137343334,0.6547206036566062,0.6574910751801689,0.6557463819634964,0.6536577358334345,0.6555337966850545,0.6499546902372497,0.6578596410683967,0.6524836553242497,0.6545373342308177,0.6578120317043867,0.6553247300163969,0.6546390845420559,0.6517246178307298,0.6549797207569488,0.6524978347183311,0.6515086438041435,0.655455349287818,0.6562136695439574,0.6531826473607204,0.657578781093856,0.651316023520505,0.6592438917876642,0.6583333799028852,0.6598803114151917,0.6609479928307513,0.6606090705588044,0.6619833599852651,0.6675464181857607,0.6701545683746084,0.671737893501841,0.6752296165690584,0.674127854293603,0.6794077317081587,0.6819736063593954,0.6827667747194022,0.6819061608042885,0.6916690415197203,0.6927624711831063,0.693652836565815,0.700343973668214,0.7019232840945597,0.7148204585244744,0.717309327051049,0.7185586175004668,0.7245708441095362,0.7273427861014081,0.7326587350068812,0.733391068673736,0.7410370257738945,0.7449666969426169,0.7536825657234891,0.7556038738371096,0.7523640750397398,0.7603530384866978,0.7674000242106971,0.7719977224489059,0.770772912398177,0.7723753978634591,0.7802970465497538,0.7813385103174566,0.7890532322361026,0.7866286650952068,0.7882482268282117,0.7880366401008209,0.7930880097870532,0.7969666214181705,0.7963871076295517,0.7952756050687595,0.8002262138039085,0.7933738822729683,0.7955933996305622,0.7937358148434628,0.7950148786351804,0.7910259140939234,0.793830438845941,0.7891360403189231,0.7877824032434129,0.7828282920586895,0.7822411659515909,0.7700081998477741,0.7663799779166156,0.7598847186922121,0.7606134422342379,0.7552708530952321,0.7464936721196869,0.7430337850898819,0.7331808769420575,0.7314107224826245,0.720322589695503,0.7166174871758123,0.7071297895380348,0.7030436546185234,0.6932683956482187,0.6891795697030304,0.6809798175334333,0.6736238475354881,0.664084484133892,0.6615247426394771,0.6513163967308575,0.6477475190436381,0.6375086834221267,0.6313374374789837,0.6271602207418475,0.6206015503118029,0.6101510384405477,0.6083912890010251,0.6066251433689543,0.5968780248326598,0.5924429155954848,0.5850623208074444,0.5818314363930018,0.5783991325912262,0
train,sample_0021,0.5092060107769878,0.5112500360757276,0.514196773097316,0.5185117919589067,0.512564958424158,0.5198324440270052,0.5187456285751374,0.5209316089957474,0.5209456320959657,0.5207880108495965,0.5277984509550807,0.5265891133497307,0.5252431509437816,0.5261033725895519,0.5272474006929325,0.5313202739848302,0.5336986215475717,0.5315312030163681,0.5315715910740317,0.5374759483419658,0.536678974162597,0.5373124079886967,0.5393625706353934,0.5450617931888666,0.5429820638422169,0.5471316351073235,0.5463909860917232,0.5509723587352103,0.551298201930887,0.5554262540057083,0.5541527314830302,0.5622487644622152,0.5642592015483322,0.5576314250631211,0.5619096480159662,0.5635641619157655,0.5680054152945204,0.5699483959692874,0.5768032236132823,0.5727298320640113,0.5811657462965305,0.5833103377092765,0.5829247431625483,0.5875322694897704,0.5909698874860116,0.5905476055544856,0.6005653809033321,0.5976926010305348,0.6003654552935962,0.6047374817527266,0.6029937591311767,0.6084037748275798,0.6160602674007346,0.6154159159315626,0.6132124564555905,0.6213943115614324,0.6203685284930033,0.6271063492126048,0.6271147508968744,0.6337990365167979,0.6385239595094332,0.6385279359389948,0.6425125621706766,0.6466074662905035,0.6485006297005509,0.6564456551974251,0.6540688375466714,0.6540421609607718,0.663733743480057,0.6675903540450937,0.6616085882070694,0.6731783445868493,0.6715653839630029,0.6765921975362714,0.6777118214745843,0.6838044221634135,0.6885737634674913,0.685764385733311,0.6866915192402154,0.6942470535266053,0.6959826037612664,0.7003955908380901,0.7037370453822913,0.7053067793534868,0.7110166788363079,0.7141834471141615,0.7161939822949694,0.7190820234473181,0.7286740069602475,0.7258496765327269,0.7321233507275282,0.7294220382507286,0.7298062528017119,0.7384506739967233,0.7361642700975324,0.7430534858050153,0.7435572745230234,0.7447908725405102,0.7492468591801382,0.7504751442220481,0.74945369447696,0.7543594124237252,0.7587725755083657,0.7592656484319221,0.76428331168286,0.7676199556147769,0.7695722548504182,0.7704240656577515,0.7697312551858526,0.7660461171809656,0.7677608024375366,0.7692082792345385,0.7770644980300396,0.7722437480385969,0.7727456366547731,0.7773379562019922,0.7742056375527314,0.7768477383843226,0.7762379007519864,0.7784726652611116,0.7725548779418607,0.7730014490390288,0.7720981540060892,0.7763377593190466,0.7728428138393642,0.7719738070927763,0.7713615501518569,0.7699627501276146,0.7685379936853944,0.7646281530907029,0.7702535186108042,0.7623556758509742,0.7596490173842556,0.7579753246583201,0.7552272355838658,0.7553629206399568,0.7498669498293071,0.7489578833974582,0.7486117603612612,0.7449561376277993,0.7419202892227601,0.7345954377361198,0.7315821256888825,0.72964064321353,0.730634058324878,0.7280577540876039,0.7165222052519488,0.716323562387896,0.717842565981371,0.7115380902301184,0.7065685275643878,0.7128143550281558,0.7001410013116776,0.6992130511896569,0.6962204860172171,0.6883476121630683,0.6874623968668081,0.683642042543499,0.68450950171832,0.6788638848279729,0.6667668840871277,0.6647896923596095,0.6621655254153719,0.6581072430058508,0.6542407707869331,0.6512077991077077,0.6430545584643265,0.6423590639032564,0.6380784805173302,0.6344217010687356,0.631145312198987,0.628160160618247,0.6214917834440314,0.6172482804303941,0.6140070895889845,0.6067735887179202,0.6066216483443403,0.6070023805291851,0.599435198097314,0.5961297386918076,0.5933443940845096,0.586458233961603,0.5805115365812668,0.5813776644600162,0.575230168763034,0.5728352908354333,0.5673213407110567,0.5667952712484948,0.5610540894007718,0.5592012204156163,0.5557565090078948,0.5484279087605585,0.549007771240173,0.5477479513023922,0.5410184509859362,0.5402733040152295,0.540637430378432,0.536212378137676,0.5318913464531225,0.5317356714683165,0
train,sample_0022,0.565099148232131,0.5733117004504968,0.5779600182512898,0.5828343054046036,0.5866045303024968,0.595089604366019,0.6005000139561771,0.5999535145927949,0.6092093201079618,0.6073181334073465,0.6187127078921633,0.6269475468459861,0.6311789592992152,0.635693040414745,0.6461807507588626,0.6463560974778493,0.6593357985692331,0.6583678182502473,0.6686346956895746,0.6764103439476605,0.6814592689741849,0.6908164406282928,0.689115084223607,0.699630496365372,0.7026930852623106,0.7073479266537899,0.7094490437393357,0.7168736420628664,0.7208893429250447,0.7305155907584179,0.7295182104445296,0.7340454212210787,0.7403931638209249,0.7411428198302887,0.7414766744079425,0.7476841555619964,0.7482428755687434,0.7588393771035431,0.7526562737974554,0.7535498587489917,0.7513603454240305,0.755784874467852,0.7571196841749306,0.7524746341412615,0.7554478304064709,0.7556805379395177,0.7535815255742049,0.749558377655757,0.747043633323808,0.7508917148362924,0.7425340008347447,0.7352119911855705,0.7423166567139972,0.7346243214859491,0.7327649439498494,0.7312744315499394,0.7252731106892616,0.7209367524847754,0.7170052550952437,0.710638452237656,0.7083920172311751,0.7066027189812552,0.7023364482800502,0.6991592464995002,0.6922760306964846,0.6876791687078859,0.6800837554579259,0.6745843921509731,0.6730687711402411,0.6677570304783313,0.661001378196904,0.6555165270564021,0.6536327754999552,0.6546242653113484,0.6504838290129944,0.6473762725720349,0.6453073623093261,0.636056917619128,0.6378831164223479,0.6320624612886604,0.6250694585114941,0.6280258939724649,0.6256188921029078,0.6189655707680276,0.6198176361057419,0.6181166482315938,0.6159204244639879,0.615469740838708,0.6144110396541441,0.611475396046795,0.6116589319998957,0.6100194407111782,0.6122147989719375,0.6050396478652801,0.6132731200533897,0.6138067162745706,0.6095514254613476,0.6074977427462093,0.6122707089689172,0.6113663679846917,0.6157746817533134,0.6104967299733115,0.6138898594443263,0.6117002874433319,0.619313455145132,0.6171939278812157,0.6132345442151883,0.6184455548303359,0.6214363043698139,0.6199789602018567,0.625565597476195,0.6206921483849329,0.623893988876031,0.6300512317132044,0.6300797002167351,0.6280219259873818,0.6337816004922261,0.6329589600805092,0.6345309221520685,0.6409138341716434,0.6371251391164574,0.6371640795502294,0.6374722199803906,0.6430483632321711,0.6413250279826592,0.6433853936235187,0.6413356406123956,0.6479150990802934,0.6465882314603054,0.6492864968270595,0.650827188799965,0.6534546756113674,0.6523358756542725,0.6527895347974755,0.6538654023992904,0.6565808933624283,0.65832734359787,0.6578717116374384,0.6579128359652522,0.6615786879324649,0.6647663688023624,0.6586064079109375,0.6653210119273548,0.6643796510489403,0.6606571482919158,0.6669996196759197,0.6668173674266749,0.6630439013037248,0.6637633812837392,0.664066792372253,0.6673031010370065,0.6674925760910488,0.6619387488458849,0.6606568422883499,0.6632588410463163,0.6623821592434272,0.6580051585819592,0.6571961819709679,0.6597241135153603,0.658544860861289,0.6517155829422161,0.652583379874007,0.650611018375971,0.6489690602317592,0.6513610750656328,0.6445342280799713,0.6406360922899699,0.6423856120786087,0.634844994637632,0.6299224593554724,0.6305078446042055,0.6276939385360044,0.6240003013152612,0.6207609096886877,0.6211301163384082,0.6144377398890498,0.616068703366733,0.6061150691788056,0.6037974803039157,0.6015163023018506,0.598146640839733,0.5975000317557123,0.5865610129806863,0.5862921491776143,0.5806300706905891,0.5770998680985963,0.5766810813010678,0.5723168848584348,0.5701252988772288,0.5658929133928919,0.5635207156042636,0.5605828541241212,0.5601766821685956,0.5524976769623537,0.5498693265117615,0.5482601770394778,0.549114765452194,0.5436252819583781,0.5422049629902017,0.5404107342130114,1
test,sample_0023,0.5197253449206515,0.5174147637560919,0.5253481186731851,0.5278863630857976,0.5286368026675088,0.528466656208052,0.525770155022485,0.5322693734999805,0.535837053024225,0.536472245499739,0.5390761346391135,0.5408190695525741,0.5416352339791253,0.5417150191257779,0.5417527619354037,0.5513016467421041,0.5479795117323569,0.5548741199140139,0.554431580219484,0.5567574953811499,0.5557162985101608,0.5554324273942912,0.5604528840047521,0.5652307047541765,0.5640427866755576,0.5666947990212673,0.5659959404437384,0.5695786285976735,0.5723110814203249,0.5740297045916748,0.5790088323628587,0.579340362208632,0.5835803622516462,0.577497788640771,0.5797871923284169,0.584669134585085,0.5829714480813044,0.5813103263828576,0.5845355006919891,0.584203460443279,0.5894134639667831,0.589446252428147,0.5874604004768356,0.5861136490334685,0.584277284582194,0.5931841890374214,0.5865498311571333,0.5873265838448625,0.5939427856538828,0.5855530478711266,0.5854265232418154,0.586073103607291,0.5837140242109152,0.5879810313994476,0.5833902203836238,0.5847669884776019,0.5857644270719407,0.5861113564111041,0.5878989214727831,0.5824780063359195,0.5838002092541599,0.5826635763360515,0.5815620815501577,0.5793732854033529,0.5829809243562795,0.5796786924547578,0.574537246163048,0.5820533715151494,0.5791821506291245,0.5770584113418343,0.5753271721913373,0.5792898605158174,0.5782587837029123,0.5824870278885543,0.5800067398759,0.5751998658728725,0.5800685068993724,0.5753908964364451,0.5801161655196475,0.57793343386208,0.5828910648944394,0.5723395393695406,0.5796490922910568,0.5836974635087809,0.5823072154631597,0.5876956855220928,0.5870461429609606,0.5847130504387319,0.5906712783642065,0.5891420120664729,0.58926845341329,0.5985283000840717,0.5926045770635613,0.5906204643424509,0.595749975160941,0.6011230035648176,0.6005401628286346,0.6068961530700626,0.6071026451909898,0.6116291544421286,0.6129161783480267,0.6140085652401712,0.6213509722710633,0.6199206637126521,0.6220075048369157,0.6289745883691025,0.6295301371775575,0.6320803662131543,0.6355081319868707,0.6418551636836862,0.6450667267244078,0.647704706118141,0.6516020808825503,0.6591023089987207,0.6658811435450881,0.6676150197894952,0.6742271192769014,0.6745647536148395,0.6764377670012554,0.6851166789808113,0.6873494025375124,0.6956546027336801,0.7014450702857655,0.7046999445670961,0.7120834713227449,0.7145313635577576,0.7178900370015141,0.7268735434438804,0.7300323760995431,0.7362122916277485,0.7446099845124949,0.7455701794002679,0.748870544460648,0.757300169932213,0.7610001044104577,0.7681946668413604,0.7745803239020166,0.77867277386908,0.783568507826372,0.7893099517182158,0.7867440465415072,0.796807256440597,0.8003630557932444,0.8056728289607138,0.8071610232698734,0.8088356886217491,0.8137326063791768,0.820657084607465,0.8215468088291523,0.8247559260092359,0.8254997813364995,0.8262373626183559,0.8326644850044193,0.8294031225811002,0.8330563458098528,0.8366193810462053,0.8341945845509215,0.8365939420704476,0.829501011883965,0.8297989709008371,0.8239019056219725,0.8276135264428032,0.8250738207293455,0.8216409214863183,0.8155207040800652,0.8129389781577284,0.8091660126858897,0.800435156169405,0.7963920878079871,0.7925915232725057,0.7942304630808759,0.778261188307519,0.7728686360383974,0.7695545966666992,0.7632678942694062,0.7504342126508277,0.7497631545870218,0.7399831034072675,0.7351508465101589,0.7234387849846974,0.7180107264571096,0.7130311024641282,0.7028847791038051,0.6948371689414574,0.6881513802136321,0.6811551194431564,0.6764247088078092,0.6654517629343053,0.6533752462912862,0.6491463379589516,0.641767774322913,0.6364089722818929,0.6350276029167907,0.6203237432423296,0.6183102521441823,0.6117781743174004,0.6011416405387213,0.596154691711633,0.5915279331610764,0.5849495409253465,0
train,sample_0024,0.5164253837669665,0.5131708041312208,0.5197041528950378,0.5236958142597216,0.5212400594652006,0.5235105693275404,0.5228836221838383,0.5274615860568881,0.5253925259588912,0.5326025739282736,0.5318787627827927,0.5339982519470848,0.5354953062806348,0.5360905142987212,0.5344552169130359,0.5459719243932258,0.54152744551352,0.5447417072571674,0.5537223076035921,0.5552800562152617,0.5573024053604202,0.5587927570337295,0.5617838862438661,0.5611202820918404,0.567403359303157,0.5655864440094371,0.5716769277307872,0.5764927725960584,0.5824115506644026,0.5865441852255557,0.5925943385352603,0.596816447725913,0.5967304026425155,0.6019588199979998,0.6097511416642247,0.607546071337831,0.6165412959384574,0.6208774864645762,0.6272761029509516,0.6312461509779689,0.6350438700469251,0.6418565184661933,0.6494248999738719,0.6492217880519032,0.6589752582102503,0.6646539339218713,0.6711940132744959,0.6776072503661272,0.6850075401042605,0.6908555041005399,0.6948857443163562,0.7006931924013853,0.7119933513192782,0.7168544500446208,0.7245604040747796,0.7337697137202843,0.7378257271938513,0.7379823419406107,0.7499708577532315,0.7517675343763325,0.7630463277903408,0.7700518806044565,0.7741444059011525,0.7832789941656814,0.7822988959692294,0.7895306968749289,0.7958276026809975,0.7994327031622626,0.8037498091469903,0.8026978519424491,0.8095997857467814,0.8160995049146103,0.8191452939057481,0.8166384578080608,0.8239579894259382,0.8226308144239497,0.829133361275959,0.8246581648628011,0.8267215641003252,0.8233261085911076,0.8316586794210981,0.8346709446217553,0.826617435000807,0.8260788396664571,0.8217154177368462,0.8252796012781711,0.8224957303234139,0.8132479426491358,0.8103550053725893,0.8106016259909105,0.8077159866444035,0.7981290083853967,0.7976903088062808,0.7913528565426785,0.7878038596447501,0.7826823404609362,0.7791396585463535,0.7725935394032326,0.7679355075606307,0.7585465132138782,0.7537536165532004,0.7494157563359434,0.7404450977442021,0.7351398157879274,0.732081836533765,0.7264018653489202,0.720154881047675,0.7148470438687747,0.7086780587668371,0.7001258310889624,0.6932821221505198,0.6896997773146348,0.6862750254596399,0.6801461919871273,0.6755556625559165,0.6664443464908575,0.6668583552017686,0.6619857397057073,0.6586845122614107,0.6497775252893425,0.64908325381272,0.6495070461676744,0.6416307965384079,0.639431428822197,0.6382334840387435,0.6369522465480051,0.6323455506809796,0.628335839281251,0.629719428628285,0.6253380842597257,0.6284848780938252,0.6238064131263302,0.6250819814268238,0.6261602651448409,0.6211552307249681,0.6183460357981713,0.6239160320049808,0.6176379705991106,0.6219999215777735,0.623652893591341,0.6191411384444624,0.623759540820175,0.6201157182590576,0.6246589603692979,0.6224605296502835,0.6178602034224205,0.6242677483321762,0.6231921506650421,0.6208009410505129,0.6228065304834441,0.6184076746223156,0.6198362671145511,0.621804800594033,0.6251554987298105,0.6231213658714333,0.6181242170476263,0.6212056343146621,0.6203428911189685,0.6179740023912211,0.6151421091364222,0.6130550500390507,0.6124148310792382,0.6177897705658206,0.612956778430153,0.6089798596368163,0.6056879234746662,0.6120169917207994,0.6018046626239429,0.6003990571588399,0.5979984416517188,0.595634380076707,0.598439257543104,0.599809844008812,0.5922273570120291,0.5916947314478248,0.5875864907246742,0.583878635258133,0.5862630733964745,0.578246705241795,0.5738423038986191,0.567871293668702,0.5767423025443459,0.5734715481033521,0.5692933616585869,0.5625562719167484,0.56370503637855,0.5602760795059899,0.5581515818150892,0.5557937983546041,0.552087224018094,0.5471181197542592,0.5451132943563891,0.5404915186280348,0.5392641506301206,0.5399186414709929,0.5339372900734431,0.5332600061730487,0.5311169243579599,0.5280768727383096,0.5319875369777952,0
train,sample_0025,0.5073053013425032,0.5200456642833411,0.5120348096542499,0.5172312747501685,0.5209793067533566,0.5228275169107037,0.5248286242296776,0.5235211768574808,0.5212539939342244,0.5211759113352608,0.5286759913231877,0.5306986036971113,0.5303133797270787,0.5335672012035687,0.5364107737221802,0.5318111854155583,0.5327320500492017,0.5384116680224588,0.5415724004671724,0.5418849207787606,0.5415565254034375,0.5431589537648703,0.5487544472930548,0.5517339708213772,0.550997230377745,0.5545850101710754,0.5562001442795067,0.5636352521027339,0.5634181983739979,0.5682658602493303,0.5718039259184535,0.5734231168082132,0.5671475979972508,0.5747553951508827,0.5780986601439422,0.5837998068215795,0.5813308925728071,0.5890355353186686,0.588960784021177,0.5941645368828733,0.5943574939961889,0.6035087651703128,0.602572004647477,0.6072564171937547,0.6097372638488076,0.6108964411154957,0.6189915212446232,0.6235039987869453,0.6216955110674874,0.6327415761695916,0.6304373549814797,0.6369924205714464,0.6381693684437224,0.6430077358255523,0.6489872960799097,0.6504255339746923,0.6552454118890452,0.6659256225702617,0.6639394926797448,0.671336293256389,0.66945966221822,0.6802844764826756,0.6830451039900857,0.6845674037136842,0.6937328547376994,0.6951205583792723,0.6966608970249908,0.7032675288821568,0.7058733028577497,0.7150288188696262,0.7169696558965386,0.722235203403981,0.7244858512396819,0.7301210704071204,0.7363967186906653,0.7376831642025677,0.7370998105876044,0.7433345315378738,0.7489737450193502,0.754649768367233,0.7559666023823162,0.7595704122973739,0.7638501708280294,0.7662617734369654,0.7726347012848185,0.7704203439551576,0.7779605215225742,0.7832198710531768,0.782832534103058,0.7874553344298987,0.787870242434854,0.7883044695622787,0.7900632185899039,0.7935838180807374,0.7976359051157857,0.7970145739891084,0.7999016117062876,0.8069043094832333,0.8065800950587847,0.8103007453951501,0.8136817922924551,0.8127425832558494,0.8139771431056367,0.8172587619303557,0.8169242322835811,0.8146086116420066,0.8211554536396095,0.8219637552859014,0.8209900416037417,0.8243745296199014,0.8221307296779272,0.821735559155831,0.8231937176429851,0.8214910958531749,0.8130075435152562,0.8207176603042965,0.814869173596499,0.8143113476553989,0.8081239467939431,0.8087219374837211,0.8077547120072155,0.804450682962857,0.8032422079527464,0.7964861805894224,0.7897185867134039,0.7923700810781386,0.7887392556473348,0.7858841724017691,0.7849581287736258,0.7768198581029164,0.7748500921990469,0.7642761492171222,0.7606526413622203,0.756484233175075,0.7441565310246532,0.7450659408750153,0.7389480245374171,0.732140575227809,0.7271075513768649,0.7300634607265903,0.7198879921820597,0.7142938382538125,0.7079568600536933,0.6964888826084691,0.6983732917366356,0.6933159088497605,0.6832582184233246,0.6754460196274932,0.6742711556195324,0.6652499003187142,0.6562990967764325,0.6544318419443635,0.6528739203609314,0.645575013812097,0.6423191958030574,0.6365757582517213,0.6303771821083987,0.6240960697370951,0.6223417937780283,0.6144845067288536,0.6099049743841226,0.6097453568308949,0.6036759976315483,0.5972477657506856,0.593278068979163,0.5943703013573972,0.5869154305597114,0.5829115381212754,0.5739200941157234,0.5731475347911954,0.5712234410598992,0.5672536454111381,0.5617467529240326,0.5648010107882075,0.5625336301310597,0.5566457177954307,0.5511950006439257,0.5501361585422846,0.550301828055978,0.548593575489718,0.5439717849994873,0.5468207738497678,0.542195680390619,0.542739111323115,0.5398068735098639,0.5372830039624109,0.5346453021580552,0.5346223150978064,0.5278058842929437,0.5319508891864375,0.5324029846868388,0.5285280558515173,0.5285288461928549,0.5266180370035013,0.5278186145125462,0.5220100624493625,0.5223867466734645,0.5240161790434734,0.5198723499731418,0.5212212733807342,0
train,sample_0026,0.5324589021579974,0.5374322125497909,0.5411721720338639,0.5432057104698398,0.5422213127497957,0.5445343177851617,0.55140112859956,0.5528132879038404,0.5603185313462811,0.5595825132960541,0.5630951161833776,0.5682057602669235,0.5670136568776857,0.5688381812129312,0.5790114533943171,0.579079293144799,0.5760344834353773,0.5801097060200762,0.5836406038510941,0.5885450951294571,0.5955409095083437,0.5964269802236892,0.598369997018391,0.6077628443981751,0.6035021512069563,0.6113895554826876,0.6096328404578709,0.6108671861414429,0.6162379720520174,0.6198503639039734,0.6191604213971509,0.62299838811926,0.6255520239355133,0.6280656014593656,0.6281905859423731,0.6351574040469661,0.6310413783826332,0.629918413745345,0.6351617581027911,0.6334998683365181,0.6367457524855777,0.6367119080575789,0.6371031839041446,0.6363671984646981,0.640489324185475,0.6347147558596857,0.6358794633464747,0.6391508103302385,0.6328113596742211,0.6362833170826712,0.6342384607896678,0.6312059755197352,0.6349889578243996,0.6305726263196701,0.6258343614171724,0.6292624706251497,0.6296848101281047,0.6253477422343312,0.6239414373744274,0.6267050828159151,0.6251306150094318,0.6214950320111652,0.6173206654551282,0.6263311225892972,0.6179012645122413,0.6197117974680096,0.615877859630092,0.6160944551774764,0.6160568853495116,0.617148092058015,0.6201732378561043,0.6108599230477118,0.6154511486493219,0.6143400330693176,0.6151304464026613,0.6186442765517676,0.6191064518580615,0.6211089258379922,0.6188802616357664,0.6209556156589409,0.6232599066633169,0.6188006193496078,0.6252998030296524,0.6260987967395872,0.6262394278769894,0.6326710540663226,0.6401671143618441,0.6341573143059509,0.6444921691209209,0.6434430895661534,0.6515276443915258,0.6521775471137783,0.662765342815372,0.6582144905362212,0.6617393197558883,0.6702897238806623,0.667455795158715,0.6761922219621489,0.6784811370963384,0.6820476296601387,0.6854794207394477,0.689400547887016,0.6955444315534313,0.7007156640435654,0.7017893312520302,0.7053604274499827,0.7123033762350295,0.714187195710985,0.7166291262794221,0.719795093723207,0.723831812837492,0.7269056953504872,0.7280256315704015,0.7363519968458536,0.739708334504238,0.7400760142016691,0.7453291659057278,0.750814000790464,0.7469895056957372,0.7518421052228258,0.7541303582314505,0.752007824547242,0.7555317775558515,0.7594988348528051,0.7586137573903252,0.7613604402265342,0.7597281226181039,0.7615497198318538,0.7609240708707455,0.7542104242040888,0.7607634573834554,0.7609071370533641,0.762640357453005,0.7600186812377379,0.7555991294341864,0.7541525682748922,0.7522351552491013,0.7511974073859417,0.7538785343625329,0.7452068250685284,0.7489490420592243,0.7487494736410554,0.7477968923114342,0.739142646254894,0.7400461929555315,0.7398874057505103,0.7384398870876264,0.7329216141941597,0.7277342824545106,0.7231761555100407,0.7278735445287411,0.7225897439072367,0.7202849623362967,0.7187279979756158,0.7121685239650943,0.7071464473566803,0.703253570892792,0.7004194825268488,0.6979508964194695,0.6897652154245442,0.6877041938905045,0.6876492830907202,0.6843455641601808,0.6795888193814626,0.6773814032869235,0.6697271225334335,0.6684331618331021,0.6640589198457659,0.6575208267197516,0.6576425645967963,0.6464970467156301,0.6439258321023018,0.6369199375332237,0.6395481656292853,0.634957140320993,0.6289104688927889,0.6230571394240152,0.6205943913375074,0.6222806172463861,0.6115976438955542,0.6066923612910521,0.5953268737845014,0.6005423345719808,0.5940498991282125,0.5890667315920374,0.586077641279428,0.5824266444064651,0.5772409516723253,0.570967857826882,0.5713837063455921,0.5666896699906663,0.5667263126071442,0.5611483922392906,0.5490747378556329,0.5512696537019306,0.5439819606916998,0.5422031730574198,0.543500061325695,0.5412249180357507,0.534187015511601,0
train,sample_0027,0.5531740436494583,0.5539791355744994,0.5583573543959414,0.5623706542965015,0.5684892540134778,0.5710599184415655,0.5753447788419934,0.5788851838263106,0.5823824911157712,0.5877046552847092,0.5900481383022594,0.5936924602046172,0.600225746626053,0.6039935716476788,0.6093462488456661,0.6158638998942745,0.6215153440843163,0.6225407803506716,0.6238704992154556,0.6343712783291976,0.636948159110628,0.643353213264818,0.6462868061870966,0.6533486442907087,0.6538331666212892,0.6599795667614047,0.6599392515424538,0.6653742489240105,0.6728560216946857,0.6807689900897189,0.6796857457169219,0.6789826065339933,0.6812710608648571,0.68338260371415,0.6859189349746586,0.6872886188068519,0.6900833763071808,0.6924011390483076,0.6915705162133042,0.6896332437524375,0.6906399847440019,0.6920222691425273,0.6896305806211631,0.69069584164935,0.6844978300733815,0.6940665197363753,0.6881945350785705,0.6857002739784037,0.678849907152984,0.6837818269195045,0.6798322156237191,0.6795472966762031,0.6744464096562622,0.6711980821069825,0.6700118569906846,0.6641450172689985,0.6591209895132008,0.6574511741281466,0.6568174975609478,0.6508641353840512,0.6527509191696879,0.6511035530579137,0.6408945433257294,0.6426114509762492,0.6385114986417348,0.6339318957427709,0.6276553368252622,0.6217019410582497,0.6257891021347334,0.6215113376303976,0.6171717587275899,0.6113612034756535,0.6120982739558061,0.6126347806309819,0.6103177680621177,0.609570125404403,0.6078357042717194,0.6111151392574452,0.6040425269292522,0.6061189346903717,0.609845150462226,0.609327481766276,0.6057342267250962,0.6115274295116919,0.6156580258517765,0.6111338133193202,0.61354758692766,0.6149596188679367,0.6174828093117665,0.6219274114877466,0.6206391090132753,0.6274133858197743,0.625288364924957,0.6348503747559205,0.640686332584989,0.6342285762072354,0.6381609234058427,0.6450868363092878,0.645387483597909,0.6509309774972812,0.651935429253779,0.6572401172705442,0.6634856819705828,0.6636839458511965,0.6716103688713655,0.6766306181774001,0.6805613324827386,0.686838844066516,0.6904690388250119,0.6907421846635677,0.6957140759911694,0.704587545537088,0.702258224981323,0.703505694976225,0.7070615695443236,0.7124393078927717,0.7197311864741316,0.7143620050509155,0.7173888525060814,0.7208036777821837,0.7192963886608582,0.7298031026927698,0.7267277971988614,0.7316135935173571,0.7279275396517189,0.7325359758605141,0.7346511332850734,0.7345306563424009,0.7357660314713768,0.7297398177410862,0.7402962633181562,0.7349934951318396,0.7300165996393642,0.7312809667573152,0.7296975574714939,0.7317369898478931,0.7294447722471861,0.7285442970002117,0.7290618901479502,0.7252253542765024,0.7225584411714452,0.7223139076933097,0.7169883064782683,0.7165046481471088,0.7261400829428751,0.7146873461651319,0.7123446526547774,0.7105027555654297,0.7101781965972302,0.7060758808746697,0.7033458364338927,0.6977001661504942,0.6975716748341249,0.6943184550796143,0.6910375221206648,0.6891204029305269,0.6905535616515798,0.6843179783911625,0.6820485137715901,0.6766592347797371,0.6720418454053392,0.6746245066254848,0.6664175417820843,0.6677801626906635,0.6586967379191756,0.6534691928951648,0.6520316239331938,0.6436863051138965,0.6488220129731461,0.6419620058593613,0.6383780260286956,0.6327675213481874,0.6259377312005715,0.625155688914338,0.6185418032467186,0.6170516295996596,0.6122465153710152,0.6106159133890903,0.6076721189975084,0.5990837506256588,0.5939452200015788,0.5946531133207873,0.5874933702730785,0.5838249590849361,0.5837810165944577,0.5780852669506449,0.5723674683212733,0.5708417438852953,0.5658079582398883,0.5624472830445019,0.5594782775300565,0.5632219709580735,0.5557213672590494,0.5516546457882049,0.5487833743928775,0.5468862172529748,0.5484065723632576,0.5373324949768731,0.5377689321022535,0.5357350590717889,1
train,sample_0028,0.5632363784986797,0.5709545340081102,0.5743410505965654,0.5758890353957941,0.5822860330293803,0.5876174396871406,0.5939392228475483,0.6004727539472516,0.6030149708905398,0.611028225137059,0.6181559101682734,0.6226359311029895,0.6261255672653888,0.6333470300938778,0.6336036194060669,0.6416390759909192,0.6504662804548728,0.6560293065350572,0.6589321622788394,0.6670912748875416,0.6691993182657153,0.6784341479946728,0.6834312306908729,0.6890829881961446,0.698360479380393,0.6971512573157738,0.700732246788444,0.7074580492369336,0.7101489328525926,0.713188522990867,0.7217021927388435,0.7242066865441932,0.7252462461132141,0.727598427171468,0.7302898205085667,0.7304250789149099,0.7317732857579182,0.7343534408578984,0.7360417057860171,0.7329387742888609,0.7358817508788347,0.7365766095337755,0.7429937815399827,0.7346535454058919,0.7367586194205875,0.7339862327999589,0.7332627833484722,0.7313069666474087,0.7248634710417553,0.7313634046517665,0.726788883855054,0.7163385984926023,0.7159254340041052,0.7148078078381556,0.7109280683304343,0.7076878473765081,0.7009070487746674,0.6972633675841087,0.6973117909584321,0.6937050904135391,0.6905536446997966,0.684547425714557,0.6776577963023027,0.67821983124227,0.6715889196175697,0.6672673843575392,0.662919395030583,0.6624359557933945,0.6576019983608046,0.65265335652858,0.6513943301313585,0.6477272514129997,0.645801928076687,0.6421486733235241,0.6404112320484465,0.6397492236090881,0.6363412053302685,0.638247377808061,0.6348991486182601,0.6361751923274983,0.6354023744775069,0.6323072324150024,0.6354350330228966,0.6364560011954135,0.6332774983905065,0.6379585516085321,0.6396389988746256,0.6400353301642915,0.6408168523755399,0.6496200782887248,0.6451915874988416,0.6492103799147829,0.651862406864091,0.6553367699987688,0.6586023030439102,0.661374261249855,0.6644740870839335,0.6703496136212262,0.6687581411305579,0.6763577088312714,0.6791589617248885,0.6763039146283174,0.6845198624757748,0.6848753548668829,0.6930773777880551,0.6952263344789579,0.7033048710589246,0.6994001053226402,0.7047219259041891,0.7103696531045044,0.7141475617999611,0.7138950059607406,0.7206156918167411,0.7254005747716123,0.7176565502382427,0.7236093420899771,0.7209542708986523,0.7257855950443046,0.725485589803984,0.72577360877766,0.7233483833172438,0.7308210193250435,0.7270833381555561,0.7248452745968065,0.7265524526567078,0.7234807484533227,0.7200688702964897,0.717373180540046,0.715139128238944,0.7211873466418111,0.7099889801644048,0.7085762996849416,0.7055743083679132,0.702782018524034,0.7051698196998575,0.6938434431324888,0.6926763486782325,0.6892668594613984,0.6849425684943266,0.6823099420035744,0.6780064060660069,0.67305623239422,0.6726486663630625,0.6624175440489738,0.6658669220961182,0.6597248541715611,0.6512887820588577,0.6519360148048279,0.640046842561699,0.6415491581787868,0.6342331796461379,0.6240452827119438,0.6228727509070493,0.6192062263094023,0.6145249738610179,0.6136507153405982,0.6125482740190784,0.6046979359412398,0.6011746256021557,0.5950087153577388,0.59241769453608,0.5916864863514151,0.582032243947955,0.5813907918916821,0.5767306020359755,0.5694239645019262,0.5691085568003,0.566237987012484,0.5665637898200749,0.5620786740450132,0.5583283460090751,0.5554688275909685,0.5540355820322077,0.549586582121055,0.5544457519506801,0.5448799171918266,0.5422607305486974,0.5410386554605278,0.5393971550467842,0.5311479575589944,0.5332663009448493,0.5359991234438634,0.5315984350929958,0.5308637905658616,0.5224491482670258,0.5234285399999645,0.5217055401729496,0.5206968234062631,0.521882077549213,0.5177050096222255,0.5187965437157169,0.5159189153693888,0.5132963386242936,0.5148323454411293,0.5101841496643595,0.5160290665331826,0.5116830997175765,0.5086268391017543,0.5053528581859457,0.5070141320662261,1
train,sample_0029,0.5459037083505501,0.5479396843240654,0.5476689898163477,0.5507451663587296,0.5553618619485978,0.5576738404839696,0.5605943445370123,0.5683903332099737,0.5741318879204215,0.577064960357873,0.5781446291143091,0.5857471489339613,0.5876877459811861,0.5939918148781627,0.5949061832864299,0.6000166521527658,0.6044346841670972,0.6116191706416071,0.6169630688221056,0.6222728607010384,0.6235980053134528,0.6315966424356578,0.6308636912708137,0.6344504739285571,0.639652555435383,0.6491097889978218,0.6488105606584195,0.6579095695892696,0.6593207401427585,0.6578812156001641,0.6655737715843854,0.6735524579374442,0.6789974216790873,0.6768698226291784,0.6808332345283872,0.6919620581177949,0.6908273650862745,0.6963031669121954,0.6975858314742178,0.7036898875826694,0.7041140294651732,0.7047294161157015,0.7099012163160634,0.7181142747125444,0.7181294560378315,0.7126963398337418,0.7200825851638215,0.7234984597161949,0.7186618225029563,0.7249546794714279,0.7257894846306524,0.7315152037674474,0.7258727255106668,0.7359955581001648,0.7354339271050568,0.7372065511067171,0.7403474515226423,0.7432316426871018,0.7421184665034307,0.7453293001978336,0.7435227707170142,0.7453011180807992,0.7424652267971134,0.7489500676925258,0.7470832611739764,0.7474403894792306,0.7436948733482354,0.7453509215692715,0.7499465991470984,0.7472162380018683,0.7504945742482418,0.7476182621434424,0.750561970579449,0.7523931369309491,0.7453355775682827,0.7499489508688458,0.7515109554651267,0.7462159601853326,0.7450548050396935,0.7461834407947662,0.7457311768340932,0.7491431129472169,0.7481128150209962,0.7429094868846537,0.7466080684088015,0.7432346403452728,0.7397297914179083,0.7398060005189129,0.7430759136471197,0.7421172319181839,0.7386899249076369,0.7359869425450223,0.7356809468550184,0.7346766737382008,0.7364472089830567,0.7294376988456563,0.7325683933319587,0.7256800020883696,0.725588929018532,0.7236921447726316,0.7220782562063849,0.7208382059605223,0.7196214068033069,0.7141674705102332,0.7167822170418757,0.7176270812128429,0.7130274379358527,0.7086544452093175,0.7077398085105597,0.7078174196299598,0.7025568467158667,0.7050281177949937,0.7004741967069669,0.6974885355150898,0.7013789581165604,0.6956986585140612,0.6870575789155375,0.6911421706619809,0.6842680091697791,0.6864204590800904,0.6807816075503741,0.6820237120319363,0.6769357074738116,0.6751507296891339,0.6710677301522524,0.6729914127299503,0.6639763331363918,0.6644369586699784,0.6610147487204358,0.6588424933998391,0.6553054913148736,0.6544777724903842,0.6512315479220507,0.6511742642879592,0.6426882506992506,0.6408595893234444,0.6434355052023155,0.6351886627518726,0.6379501021178735,0.6325278664885807,0.6305801206329967,0.6267675952697734,0.6258070211181779,0.6210958713604335,0.6168010711293952,0.6171322229659161,0.6140747780574817,0.6113785798224997,0.6087929866307391,0.6095311822846419,0.6028736766285826,0.6043273426460343,0.5998876293328119,0.5952193010451938,0.59063492130039,0.5937257213768596,0.5874272834723526,0.5894971532492896,0.5846545851450912,0.5839498875627822,0.5833465369224045,0.5762483658271907,0.5773086420374265,0.5712305797250167,0.5739823826163778,0.5681533132664387,0.5634813226213071,0.5632177351150592,0.5606157526296777,0.5599896491473452,0.556936620306884,0.557661727001473,0.555873315654903,0.5510623163291866,0.5516774017452817,0.5522266658203348,0.5411436162395944,0.5429982432331281,0.5382416989154841,0.5393182241098087,0.5379750285976291,0.5353586902034337,0.5294746621112368,0.5278418489841002,0.5296467897981941,0.5271713041605283,0.5240456078358249,0.5277176208900118,0.5221857530328518,0.5208713422892507,0.5240130556127099,0.5200807906869717,0.5198367939639321,0.5190126701869321,0.5175707277300199,0.518344365833575,0.5095504743550006,0.5121561859472884,0.5082745355881031,0.5140575760849885,1
train,sample_0030,0.5039030802405762,0.5022712827295162,0.5016948512670727,0.5039921863723169,0.5023449763268368,0.5035341235846632,0.5045128719126566,0.5026246815738996,0.5036935360769536,0.5057396379187994,0.505082987717158,0.5041679646802125,0.5065588292602993,0.505318839698839,0.5085647595107122,0.5103195594636111,0.5028287935912882,0.5101255006582636,0.5049021161995841,0.5063882030497112,0.506817613955453,0.507761706900792,0.5076406951742536,0.5074881477426229,0.5047456770924544,0.5075603074222462,0.5054264566667132,0.5086428887832517,0.5064831936304529,0.5059702404563616,0.5071436781595019,0.5119422203687868,0.513181250828611,0.5140904553459473,0.5111020528304947,0.5146572200076606,0.5143355986583437,0.512107861643742,0.5151840570403149,0.5149802526348968,0.5162589095648119,0.5170836840271786,0.5151836612284677,0.5215773087019652,0.5152571676930686,0.5215657343832979,0.5179485950981313,0.5200887100981578,0.523129560415096,0.5239481825313851,0.5302475826479233,0.5268378178050154,0.5263526094312125,0.5264469380578011,0.5302232498835627,0.5323510674635287,0.5372573092482902,0.5387191385202759,0.5372213079708636,0.5437148995066079,0.5408536555908435,0.5437229568974032,0.5459801527016955,0.5492814938188643,0.5521597797487269,0.5574346292537559,0.5598499024162317,0.5620793605120046,0.5639581103420348,0.5689987694699433,0.5768436642565273,0.5804347768153897,0.5826907360036846,0.5966832208502575,0.589759167630099,0.5959676916747153,0.60240735717609,0.6106805451522016,0.6192613081628341,0.6287629802218831,0.6295150709286705,0.6401871131492628,0.639949712209634,0.650386756728826,0.6567554688225299,0.6672586729590885,0.6757968488263448,0.682295805497464,0.6895830431266352,0.7008101980819226,0.7105885704858134,0.7162388535409079,0.7291534452728659,0.7324771144283251,0.7440015609727514,0.7497800769098732,0.7627852270639173,0.7712668202676326,0.7757903877884293,0.7937278219841658,0.7968148450604611,0.8047088964617284,0.8152221953839416,0.8243917936636216,0.8331476335363632,0.8409305772751035,0.8486192442242535,0.856468536238254,0.8660530379222586,0.8689758920325776,0.8753035067353648,0.8771969917462382,0.88490672737996,0.8923009881533557,0.8925748219898865,0.8959111449829131,0.9052179203485451,0.9070967153033301,0.9124565908910647,0.9114572458940249,0.9115413152354062,0.9125858667649306,0.9140347798198644,0.9105222481221892,0.9139108014942325,0.9130292435218179,0.9071389367582094,0.9056048232363458,0.90165960077474,0.8990718272544942,0.8994950137703415,0.8915422299671162,0.8934349023875902,0.8844432123729706,0.8798431397321131,0.878093665332817,0.8699499146068143,0.8669460374097098,0.862126687664975,0.8564208908836259,0.8490457740166863,0.8374818681969887,0.8289079269197073,0.8233207286121647,0.821505283526694,0.8090452092532894,0.8036183857444568,0.7966984100191674,0.7922908402601518,0.7834550514251901,0.773856065529867,0.7678717884922441,0.7642867743219467,0.7534063364142806,0.7476037192395231,0.7465355351776632,0.732976103829478,0.7308139414045812,0.724877117618959,0.7121522283436064,0.7092983180175484,0.6983172123291577,0.6928291856605527,0.6835276257836169,0.6806533450264494,0.6723999049767992,0.6661738205237201,0.6629459565451578,0.664369727009976,0.6541700625453934,0.6475119691305775,0.64306819345643,0.6349307259704292,0.6334532545507405,0.6265774715422292,0.6190173581093517,0.6165273372484918,0.6133943226789762,0.6077867461397969,0.6007388549128814,0.5962463701817599,0.5955507406373934,0.5866346684464759,0.587299765470287,0.5836588645431771,0.5794206883194107,0.5749488514820533,0.5746697767039967,0.5711265498357074,0.5671571653704929,0.5637021825313947,0.5599140528614635,0.5538995227575062,0.5494051061966316,0.5486034946645282,0.5420990449188943,0.5464999842400914,0.5459660331057828,0.5373929652065901,0.5386267004178102,0
