model_class,ALPINE_P_291_KS,All_manure_CaO_SPXY_strat_Manure_type,All_manure_K2O_SPXY_strat_Manure_type,All_manure_MgO_SPXY_strat_Manure_type,All_manure_P2O5_SPXY_strat_Manure_type,All_manure_Total_N_SPXY_strat_Manure_type,An_spxyG70_30_byCultivar_ASD,An_spxyG70_30_byCultivar_MicroNIR,An_spxyG70_30_byCultivar_MicroNIR_NeoSpectra,An_spxyG70_30_byCultivar_NeoSpectra,Beef_Marbling_RandomSplit,Beer_OriginalExtract_60_KS,Beer_OriginalExtract_60_YbaseSplit,Biscuit_Fat_40_RandomSplit,Biscuit_Sucrose_40_RandomSplit,Brix_spxy70,C_woOutlier,Ccar_spxyG_block2deg,Chla+b_spxyG_block2deg,Chla+b_spxyG_species,Corn_Oil_80_ZhengChenPelegYbaseSplit,Corn_Starch_80_ZhengChenPelegYbaseSplit,DIESEL_bp50_246_b-a,DIESEL_bp50_246_hla-b,DIESEL_bp50_246_hlb-a,Escitalopramt_310_Zhao,Firmness_spxy70,Fv_Fm_grp70_30,LMA_spxyG70_30_byCultivar_ASD,LP_spxyG,LUCAS_SOC_Cropland_8731_NocitaKS,LUCAS_pH_Organic_1763_LiuRandomOrganic,MP_spxyG,Malaria_Oocist_333_Maia,Malaria_Sporozoite_229_Maia,Milk_Fat_1224_KS,Milk_Lactose_1224_KS,Milk_Urea_1224_KS,NP_spxyG,N_wOutlier,N_woOutlier,Pi_spxyG,Quartz_spxy70,Rd25_CBtestSite,Rd25_GTtestSite,Rd25_XSBNtestSite,Rd25_spxy70,Rice_Amylose_313_YbasedSplit,TIC_spxy70,V25_spxyG,WOOD_Density_402_Olale,WOOD_N_402_Olale,WUEinst_spxyG70_30_byCultivar_MicroNIR_NeoSpectra,brix_groupSampleID_stratDateVar_balRows,grapevine_chloride_556_KS,ph_groupSampleID_stratDateVar_balRows,ta_groupSampleID_stratDateVar_balRows
AOM_PLS_Best,-0.14619637213989797,0.46771487953960167,-1.3212121285849636,-1.1196207585703768,-0.6449060798485144,-1.702860146994361,-0.6259573238993899,-1.5849095566994558,-1.1247479665040085,-0.8538811822782252,0.19205629245971545,-1.2357856342702975,-0.5423449349732711,-1.18690138131995,-1.6578961226618827,0.10701139107800671,0.25604464623409845,-1.3286186571217364,-2.3136206889826245,-1.878864950048641,-1.1383876510402273,-0.486271681168735,-0.8402059729304369,-0.8597747193019775,-0.6785864938376103,-0.5041920864546823,-1.2516480137091013,-0.8221595158412804,-1.008036941153602,-1.8576713997622905,0.6697728600816948,0.48572250300158104,-1.2827526111881402,-1.2862804821091585,-1.0167270069394323,-1.041221528815647,-0.3742741454047265,-0.10772462094700136,-1.1670413304644218,0.5136973592105879,0.3984813659115391,-1.4089533882936083,-0.9250644133724563,-1.0082296376865616,-1.2296309623345771,-1.786481847511733,0.15587895563513307,-0.8347045577037678,-0.5836067950724101,-1.875449820041661,-0.10806495912028312,-0.6034406589055389,-1.574110246966037,0.5411338359578554,-0.1434577456222692,0.3123144988684237,0.26950122119026426
AOM_PLS_Standard,0.21608554479210015,1.7172375722639517,0.05413662996283688,-0.10339471563932937,-0.34086403433358176,0.3854570420597248,0.9797867827288183,1.7081741895208242,-0.07413381178407533,1.5171125758087365,1.016458124575607,1.2096641479263117,1.5063017391522293,-0.471472829792485,-0.1275620275131727,1.2218451161119104,0.66083376122284,0.9321700393482364,-0.2754970128931062,0.40585147744428474,0.3283414171171879,0.028562469871142557,-0.6720134702711473,-0.8095816932078594,-0.4728623328717137,0.13295686626497563,0.19484415946045242,0.9343239576689158,0.9026704800835365,1.1493847084359121,1.265860997843006,1.8364235431590197,1.6980918698611764,0.3622633247770482,-0.4633598552131986,0.1526699583511629,-0.21486877690154466,1.414019938827038,-0.6114105670967277,1.5941206380391182,1.9796866794621228,0.22978579613470762,-0.9247683309181811,-0.9878728372366359,-0.9572601123248426,1.1346170320796114,0.543174137373907,0.473348036202892,0.9115573029793536,1.3513952598328351,1.5873036597126116,-0.14172683737342986,-0.7035035446111483,1.9053527567464315,0.7193834101890184,1.283404576682966,1.8918874478411412
Paper_CNN,1.063780236000606,-0.3904478083491232,0.9809499241115779,2.16787094304118,2.2665079665918855,1.1902899456377762,-0.08330356083511861,0.29925689291123025,-1.2427174909595384,-1.46560025081984,0.4314254359798196,,,,,,-0.43211445609342425,-1.686276604957235,-0.05116312563342891,-0.7087456007453173,1.3305992668062059,1.6300666724711548,1.913004564877996,1.662551795400842,2.0342417133048847,-0.5392740235660057,,0.19833155472872113,-0.3472889835461128,0.8930021137195268,-0.2918967131428921,-0.7850127314769949,-0.602810616015562,-0.9168717845950953,-0.2925471171823441,0.6072426289690813,-0.3893649755550985,0.4905308658100289,1.58329653620109,-0.5034627580246983,-0.22542872177491094,1.7229239717622806,1.1535108859599943,0.8703604712838073,0.729043471225087,0.058332592055641834,1.776984144843101,1.167035231242355,1.487085820849334,-0.7995469052796301,1.2511380558765641,2.3864876555908725,0.9788312938101813,-0.6124151704619002,1.424444472590018,0.37347173970402314,0.00021326383432523324
Paper_CatBoost,0.3035405265781119,-0.1938495289591012,1.4959500622506943,0.5821124502469543,0.18668763474969347,-0.12829502410280946,-1.487195889385626,0.4595680214950332,0.9942117843737462,0.5117819454770807,-0.7982493736853715,0.7548286004625122,1.3475334709877085,1.4342649065157866,0.8544810648181077,,-0.3830411438834403,0.2982021389771709,0.245412331757071,-0.7246842295165111,0.7892724059911652,-0.014305818342024277,0.9895826929289061,1.2459597503052282,1.037992349653838,-0.6237290403804945,0.12724161679943327,0.10818795182829807,1.710616136115253,0.09972158545844421,0.2717996031675471,0.5474005153482789,-1.0270530743414794,0.7610411518589327,1.7883469458853691,0.4304944694025574,0.5272528679199499,-0.5068107395146132,-0.7215481683556381,0.23465019029822812,0.30995838319395835,-0.6158664069057835,1.0897959841369846,1.4844401549023334,0.6815854929132859,0.042079254611713454,-1.0159004338903663,0.7076260716984594,0.77676917300649,0.7250763003775513,-0.472111665802886,-0.006715802495576403,0.9719274727665976,-0.2905299034206484,-0.6009443847226791,-0.7919639129775322,-0.5255373834178518
Paper_PLS,0.552023532973406,0.7309844381762611,-0.9088125716246174,-0.2534055669822001,-0.7279322676445257,0.5380130951477125,0.23935913775583342,-0.40115526714204475,1.1262185011890256,0.8347568056784719,0.9390385587668524,0.4692723948984228,-0.25465345891445196,1.355465736192448,1.0561552644414758,,0.7403314447818069,0.824921473855497,0.6200156719904337,0.8964699778391348,-1.0620826633291078,-0.999998622561893,-0.569110744646313,-0.686111301030271,-0.3307117741260406,-0.3729820527237102,1.9990053655700555,1.0699517866305324,0.2156366434085033,0.4499778009162425,0.6363880975442672,-0.2680643996732646,0.5401988473808068,,,-0.648989679772556,-0.4125293655087867,-0.2496289847709271,-0.9388316080942579,0.3826636684280693,-0.01904763770701477,0.779710195479197,-0.9247683315575547,-0.5644284562844957,0.02911358796002723,1.1346170320796627,0.6458315002975046,-0.7908638327861238,-0.8596255141877319,0.38728358777839855,-0.11503062494954598,-0.042007899875153694,1.2753360247244072,0.40693690859008047,-0.15235701356235418,0.7310637565936874,0.5153646704031682
Paper_Ridge,0.12040618142958819,0.15131761730683424,-0.9917448765517567,-0.36758884855500273,0.3233072050810353,0.00859553456659326,1.752615887191827,-0.7355406844293064,0.8692096364151929,0.5083125582501672,0.7304458614037153,0.4490490622726643,-0.65526784737921,-0.23415018854813122,-0.15362051739722532,,1.6110250679043316,0.8636190515311714,0.7347815174281122,0.8570791103781408,-0.2653281103034437,0.026782666984104815,-0.9316131230898379,-0.867626776474419,-0.7448949683596047,-0.023659942440832964,-0.3705279469502279,-0.41180220359841835,-0.8762414879168668,-0.39072084062953316,0.280444405067826,-0.23188754061103142,0.4472989793506502,,,-0.5699711422655199,-0.48504161140116286,-0.043451951245437895,0.5802034629003568,0.2824285259228626,-0.2734523836855986,0.09074885549614754,-0.9248094578335969,-0.8119987698914263,-1.1045225627174868,-0.4894084298686187,-0.07215191907290767,-0.8204538069504678,-1.3838945635091011,0.4079649120446779,-0.2223682865709758,-0.3574635298944034,0.039248045786436064,0.10791401803919509,-0.16073269417508998,0.6633205373648002,0.08836384774917298
Paper_TabPFN_Opt,-2.3125262812660696,-1.2058600729270477,0.30484369411090634,-0.6621632583654551,-0.7514137531122109,-1.1911884778917439,-0.38765251677817214,-0.38994302721455076,-0.9890638817836593,-0.3676674791030267,-1.7743615011821747,-1.3986521391255438,-0.969716133284012,-0.35570676622717623,-0.8120665519764158,-1.2179231795258696,-1.3040153499091423,0.013073177702781097,0.6670362524829347,0.3830072446406263,-0.9922684991385933,-1.334916405447134,0.1086203666212251,0.0682280475093711,-0.6212749079767051,-0.4566065706119598,-0.37833619834332194,-1.8624049315016942,-1.0501814216012573,0.5375080132058379,-1.8003231900066445,-1.5321049995198852,0.630789520945764,1.3181830664544054,-0.4914222878192728,-0.8828951669951458,-0.9176042642725302,-1.9003095158475507,0.3171539941523291,-1.764352014960978,-1.5005160599435765,0.18367472612079486,0.7173566396343339,-0.015865208293704764,0.35995701762260723,-0.7485479543049391,-1.0315453806273074,-1.1578677851173356,-0.5607305090241755,0.18059527113384297,-1.582128375859452,-0.7360631509516544,-0.5597403921047224,-1.4302026226368538,-1.8532482709937776,-1.6079887313907244,-1.5008138369665203
Paper_TabPFN_Raw,0.2028866316321483,-1.2770970970513795,0.38588926632532333,-0.24381024517576963,-0.3113866714837769,0.8999880315771065,-0.38765251677817214,0.6445494315582636,0.4410232290533169,-0.6848149730133729,-0.736813398318189,-0.24837643216407077,-0.43185283558899273,-0.5414994768204922,0.8405088902891135,-0.11093332766404755,-1.1490639702570709,0.08290938066411725,0.3730350538506129,0.7698869700082861,1.0098538338968133,1.1500807181933852,0.001735686509606806,0.2463548967990826,-0.22390358578705274,2.387486849912711,-0.3205789828272871,0.7855714000849318,0.45282557461056433,-0.8812019813441556,-1.032046060554797,-0.052476890227704416,-0.40376291599323727,-0.23833527638602847,0.47570932126880994,1.952670461126059,2.2664302711238906,0.9033750076884823,0.9581776807572558,-0.7397456089131866,-0.6696816254565117,-0.9820237497937263,0.7387470239504762,1.033594283206684,1.4917140676559053,0.6547923208586615,-1.002271004559069,1.255880643413989,0.21244508495824277,-0.3773186058460102,-0.33873780328604497,-0.49906977609511594,-0.42798865340571446,-0.6281898228141483,0.7669122262970983,-0.9636224648456456,-0.7389792306336971
