model,ALPINE_P_291_KS,All_manure_CaO_SPXY_strat_Manure_type,All_manure_K2O_SPXY_strat_Manure_type,All_manure_MgO_SPXY_strat_Manure_type,All_manure_P2O5_SPXY_strat_Manure_type,All_manure_Total_N_SPXY_strat_Manure_type,An_spxyG70_30_byCultivar_ASD,An_spxyG70_30_byCultivar_MicroNIR,An_spxyG70_30_byCultivar_MicroNIR_NeoSpectra,An_spxyG70_30_byCultivar_NeoSpectra,Beef_Marbling_RandomSplit,Beer_OriginalExtract_60_KS,Beer_OriginalExtract_60_YbaseSplit,Biscuit_Fat_40_RandomSplit,Biscuit_Sucrose_40_RandomSplit,Brix_spxy70,C_woOutlier,Ccar_spxyG_block2deg,Chla+b_spxyG_block2deg,Chla+b_spxyG_species,Corn_Oil_80_ZhengChenPelegYbaseSplit,Corn_Starch_80_ZhengChenPelegYbaseSplit,DIESEL_bp50_246_b-a,DIESEL_bp50_246_hla-b,DIESEL_bp50_246_hlb-a,Escitalopramt_310_Zhao,Firmness_spxy70,Fv_Fm_grp70_30,LMA_spxyG70_30_byCultivar_ASD,LP_spxyG,LUCAS_SOC_Cropland_8731_NocitaKS,LUCAS_pH_Organic_1763_LiuRandomOrganic,MP_spxyG,Malaria_Oocist_333_Maia,Malaria_Sporozoite_229_Maia,Milk_Fat_1224_KS,Milk_Lactose_1224_KS,Milk_Urea_1224_KS,NP_spxyG,N_wOutlier,N_woOutlier,Pi_spxyG,Quartz_spxy70,Rd25_CBtestSite,Rd25_GTtestSite,Rd25_XSBNtestSite,Rd25_spxy70,Rice_Amylose_313_YbasedSplit,TIC_spxy70,V25_spxyG,WOOD_Density_402_Olale,WOOD_N_402_Olale,WUEinst_spxyG70_30_byCultivar_MicroNIR_NeoSpectra,brix_groupSampleID_stratDateVar_balRows,grapevine_chloride_556_KS,ph_groupSampleID_stratDateVar_balRows,ta_groupSampleID_stratDateVar_balRows
AOM-compact-cv3-numpy,0.0607920585189263,7.956708483305158,2.5187208477569105,0.8038818165706888,2.3347551228503023,1.7288448293595216,3.924664127092537,3.61939867371316,3.8018856192510566,5.197543888046767,75.09710974076586,0.3288731834575107,0.2985422875159903,0.442133781365517,1.151771036149548,1.4204672370620972,2.578181266849206,74.51104841235468,46.18869619477093,50.78026849355031,0.0296536856230262,0.138825048492548,3.2098879761585923,3.1628523566067,3.0295653387466577,0.4135740958052136,0.3253825229113011,0.0313004338283994,0.3040285089519362,0.1740227048545429,4.886152291677541,0.4416696243147964,0.024333873847334,7930.904001931568,33811.329675840665,0.0948251785233808,0.0573534985266922,4.197357980537094,0.1216853757038202,0.3546073824573907,0.3222596469497696,0.1905974591997972,3.398765515452267e-09,0.2287746993631384,0.2085747113420383,0.2804748394320114,0.1797052580985586,2.47113102140502,3.788055843147295,0.3230913532632832,0.1335717612194024,0.050362658774665,1.5594523164359233,4.281733838228362,1027.211654785527,0.3448134019201604,2.171883626120552
AOM-compact-cv5-numpy,0.0607920585189263,8.24841476875877,2.485597872909592,0.7465822035673529,2.484911312503799,1.7288448293595216,4.077997851474462,3.525626689488803,3.791200099624012,5.155516687304964,75.05514029849627,0.3288731834575107,0.2793228826287099,0.442133781365517,1.1649498367043007,1.7489561606731527,2.578181266849206,70.98125640039996,46.18869619477093,50.78026849355031,0.0265166017645963,0.1394191461678669,3.2098879761585923,3.1039984195950616,3.104283833452879,0.4135740958052136,0.2949028166087614,0.0313004338283994,0.3032142789905723,0.170506818766177,4.886152291677541,0.4416696243147964,0.0226215712534769,7930.904001931568,33811.329675840665,0.0948251785233808,0.0573534985266922,4.197357980537094,0.1228717777217287,0.3576571672615714,0.3222596469497696,0.1980742318324117,3.398765515452267e-09,0.2287746993631384,0.2085747113420383,0.2847412126714401,0.1781223377032262,2.47113102140502,3.7127173960446944,0.3230913532632832,0.1306006767446517,0.0494642394667158,1.4155459406423567,4.281733838228362,977.5131269359132,0.3404823093244757,2.175504096022409
AOM-compact-cv5-oneSE-numpy,0.0658404531778488,8.21535516288557,2.618856310046643,0.8722799008893388,2.415432856582086,1.7879650929666462,3.92550105780016,3.4400208993859405,3.589473937715188,5.155516687304964,73.96021571116073,0.3288731834575107,0.2568723658502096,0.4596123125049884,1.0372030287768583,0.9646821714787392,1.871619175132444,55.86672720879382,53.1947117927065,60.832623465557184,0.0483095997059468,0.1296241335442014,3.634586420153751,3.851382142363405,3.882591351570792,0.4146620111548218,0.3253825229113011,0.0313004338283994,0.314806475847958,0.1547081398747242,5.120599081061821,0.4961981684312267,0.024333873847334,7953.722591100652,34046.17728593695,0.1322330893703592,0.0659803526082826,4.233005847814509,0.1045321845348423,0.4186515690642767,0.3964104442405227,0.1843693641826551,3.398765515452267e-09,0.2589677211546614,0.2219333503972153,0.2678096444133925,0.1790821102638709,2.4544527699838063,3.7127173960446944,0.2718741275259095,0.1286974223068357,0.050441954695611,1.589619323993804,4.354965767535166,1031.0505123153482,0.3493103596379021,2.2475791589727074
AOM-compact-oneSEcv3-numpy,0.0634396565895516,8.480997190768543,2.695390977552789,0.9220418586300118,2.396358233665589,1.7879650929666462,3.92550105780016,3.525626689488803,3.818166551599653,5.197543888046767,73.96021571116073,0.3288731834575107,0.2568723658502096,0.2740572196551213,1.0372030287768583,1.07173882650297,1.871619175132444,55.57345199829334,49.87087135152097,56.76883936498408,0.0517296114164852,0.1296241335442014,3.827165785586727,3.878867973689832,3.804078273892004,0.4146620111548218,0.3253825229113011,0.0313004338283994,0.3192377617022927,0.1698633709337957,5.120599081061821,0.4961981684312267,0.024333873847334,7953.722591100652,34046.17728593695,0.1322330893703592,0.0614171981695876,4.233005847814509,0.1020763280581805,0.431571661268291,0.3964104442405227,0.1845976975292478,3.398765515452267e-09,0.2278641640946068,0.2219333503972153,0.2829425611697126,0.1754586104291702,2.809563841407789,4.768429523581213,0.2718741275259095,0.1285536669714782,0.050441954695611,1.4097840847594956,4.447582867197306,1074.6265010860805,0.3492339309007606,2.233720389050846
AOM-compact-press-numpy,0.0839119924335342,11.644581240731773,3.613651981310409,1.2522389458002772,3.535594067195741,2.63095254237481,4.988593401834862,4.395494585730479,4.771731632161637,5.198495004228249,72.66856846205425,0.425090878001106,0.7703265593537222,0.3974846307069198,2.5100989661080253,2.0181761646619942,2.063764116829838,62.98913243310813,46.18869619477093,50.78026849355031,0.0427419262146364,0.1716982946000513,3.348372362138384,2.786498003201579,2.9662018449794694,0.562371956548244,0.2896121183997373,0.0298817174303827,0.3033852766131881,0.170506818766177,4.886152291677541,0.4683217258034229,0.0279635708727554,10681.741996844718,35708.53878553114,0.0960959042875567,0.0588361629987972,4.410214962452071,0.1372938936045382,0.3794777943247521,0.3226672458637098,0.2032118273774111,3.561980005955213e-09,0.2993597488587591,0.2962629476981777,0.283538342767155,0.1812041302892248,2.270758273806495,4.00865812201359,0.2978286839663502,0.1422308522219675,0.051727956534913,1.845046704201709,4.143343944869722,916.5580773140164,0.3723524579308986,1.935498408067392
AOM-compact-repcv3-numpy,0.0598845144888807,7.956708483305158,2.485597872909592,0.7914811275013638,2.5177757051268057,1.7288448293595216,3.92550105780016,3.525626689488803,3.818166551599653,5.155516687304964,73.36257755362814,0.2595054322300939,0.2994960089854169,0.442133781365517,1.082073307380811,1.0017970709166777,2.578181266849206,70.98125640039996,46.18869619477093,50.78026849355031,0.0265166017645963,0.138825048492548,3.2098879761585923,2.963358059280102,2.9662018449794694,0.3780292443436541,0.3253825229113011,0.0313004338283994,0.3032142789905723,0.1709036555421458,4.886152291677541,0.4416696243147964,0.024519219646231,7930.904001931568,33930.96079364952,0.0948251785233808,0.0573534985266922,4.197357980537094,0.1250987550001222,0.3590883475232105,0.3222596469497696,0.1905974591997972,3.398765515452267e-09,0.2287746993631384,0.1968682286119768,0.2804748394320114,0.1797052580985586,2.270758273806495,3.7127173960446944,0.3369296013945036,0.1307445986169115,0.0498235480850258,1.4360684849205956,4.354965767535166,977.5131269359132,0.3448134019201604,1.935498408067392
AOM-compact-repcv3-oneSE-numpy,0.0668578058837774,7.945259608880703,2.5716463243851333,0.8722799008893388,2.396358233665589,1.7879650929666462,3.92550105780016,3.4400208993859405,3.818166551599653,5.012778254986404,73.14403816124707,0.3288731834575107,0.2568723658502096,0.5490983541729934,1.315009172775429,1.074982534544758,1.871619175132444,57.79186872300805,49.87087135152097,60.832623465557184,0.0483095997059468,0.1359457962379096,3.634586420153751,3.851382142363405,3.1362095273049966,0.4146620111548218,0.3253825229113011,0.0313004338283994,0.3192377617022927,0.1698633709337957,5.120599081061821,0.4961981684312267,0.024333873847334,7953.722591100652,34046.17728593695,0.1143728322250905,0.0614171981695876,4.233005847814509,0.105988785316848,0.431571661268291,0.3964104442405227,0.1792281855766136,3.398765515452267e-09,0.2422800464805326,0.2219333503972153,0.2829425611697126,0.1790821102638709,2.809563841407789,4.897636762212527,0.2718741275259095,0.1286974223068357,0.050441954695611,1.4030141720263911,4.5073555900637325,1044.2175618673948,0.3492339309007606,2.233720389050846
AOM-compact-simpls-covariance-numpy,0.0602139375074288,7.72034597558796,2.608539791796668,0.7946789148284525,2.7062747301994072,1.7313050242229395,3.904052294157028,3.6907866055943135,3.968067027375122,5.117988787348381,72.7827852830316,0.4250908780011068,0.9473565532735878,0.5490983541729932,1.194712443409029,2.0181761646620657,2.5781812668491764,62.98913243310822,46.38155006768061,50.78026849355085,0.0265166017645969,0.1388250484925488,3.174703293794276,2.926505684604138,3.018745524649935,0.3759896391020082,0.4320036360381859,0.0337650987839693,0.3098774365028794,0.1728182123039681,4.886152291677484,0.4683217258034163,0.0190535904663278,8634.838632348137,34317.06383479275,0.1102797481836828,0.0568684909881534,4.181714113729996,0.1116231406552717,0.3429315105853032,0.3417090507763308,0.1892153843924935,3.3915181591560317e-09,0.267069303165675,0.2038005769093663,0.2706237199661699,0.1830246266464244,2.2707582738064915,2.950062010529332,0.372383928622764,0.1286974223068357,0.0501890249981298,1.7609425297162018,4.360670385671456,977.5131269359118,0.3448134019201602,2.252388959089023
AOM-default-nipals-adjoint-numpy,0.0673304408295094,7.689144687644411,2.506858594170727,0.7168578848596983,2.7181724835994707,1.7226059052206846,3.904052294157023,4.342701659250161,4.353367958873348,5.524703973348429,72.78278528303186,0.2041832245698669,0.2107115974147592,0.5490983541729934,4.346934040836874,2.018176164662046,2.327531223099358,81.25415965345452,45.39112303504521,50.78026849355031,0.0221767524674988,0.1694680967921089,3.2392441601603856,2.7299217516730865,3.7028092269063935,0.3722321369439038,0.3770677218964058,0.0332806883930885,0.3099387942566557,0.1728182123039682,5.186874935549919,0.4578914547887714,0.0193104629979034,8634.717302626463,35459.12504496326,0.1088748356704677,0.0579541920544823,4.252640828548336,0.1241455025049701,0.3481335738414483,0.3393929425576861,0.1995011306179031,3.3915181732067243e-09,0.24722866703895,0.2040336712896285,0.2636621588493365,0.1802349854499946,1.8872509364111647,3.092131547331423,0.3414635160305277,0.1392575584438161,0.0504005592490464,1.5559010794745662,4.1629026505997855,962.748146765652,0.3513128408267453,1.87331437311998
AOM-default-oneSEcv3-numpy,0.0572883873409942,8.622393761538085,2.412466372916033,0.8576500460277494,2.3358928693841707,1.764622725161466,3.92550105780016,3.5543033087542324,3.820834368032705,5.197543888046767,73.49402485560549,0.1540369600093148,0.2074260424079046,0.5610969694339878,1.1763536680636812,0.8781333970109643,1.9004811146260328,51.27774877352509,49.87087135152097,56.76883936498408,0.0455048852318927,0.1591100961670707,3.827165785586727,3.8597148785026536,3.804078273892004,0.4231394302794125,0.3253825229113011,0.0315831379034353,0.3204417855658107,0.1747558005631269,5.120599081061821,0.4671566793258091,0.0231387698488799,7953.722591100652,34046.17728593695,0.1092513464588808,0.0614171981695876,4.2223325549780295,0.1169371479167009,0.4348293424269149,0.4075227471634456,0.1764307680722781,3.398765515452267e-09,0.23099003020389,0.2389131097071899,0.2768278953656022,0.1827302360021761,2.2745023248893603,2.948120757463263,0.292075459695971,0.1290993895400911,0.050441954695611,1.6000889811215513,4.009898976314049,1058.6423134109675,0.3372344990758822,1.949339972151352
AOM-default-simpls-covariance-numpy,0.0635305930443534,7.741062906971687,2.5539229527549083,0.7268158855373635,2.7177027342932907,1.7198583470504396,3.899854496051621,4.21096610756084,4.395372997755818,5.387136488497643,72.7827852830316,0.2195069472589186,0.2327825566430517,0.5666989713446977,4.750023851659158,2.0181761646620657,2.3171489513834542,62.977759603079214,45.72806905489868,50.77031815820983,0.0292773551075146,0.1672200488950641,3.239244160160364,2.9077582863960063,3.633589008056778,0.438051326088879,0.4903280575484634,0.0332840125826156,0.3084632160174452,0.1713549158271547,4.916851604393122,0.4678338726154714,0.0190535904663278,8634.838632348146,33975.9118754933,0.1146181064322986,0.0570604247067402,4.181714113729996,0.1289802217081461,0.3490607413193846,0.3395545584668529,0.1888011334684481,3.3915181591560317e-09,0.2573186781052314,0.2644360224609102,0.2648639348411965,0.1843451623439338,1.9241251253080027,4.082664955955707,0.3367127982919053,0.1394279892393135,0.0504026274187659,1.7478850567169264,3.9660707429302704,976.996286403054,0.3513128408267448,1.870756941109064
AOM-explorer-simpls-numpy,0.0602139375074288,7.556228457567122,2.397313918206069,0.7946789148284525,2.3450488133561005,1.6819595040654185,4.144119912109182,4.3147003116083145,3.939683869037638,5.4163734949406654,75.29365396141877,0.2440712473468487,0.51886004751519,0.3635341949763641,1.858505953735388,1.452654777932852,1.9773736551105028,70.98125640040081,44.74896317712065,49.62585242726729,0.0632704807118606,0.1972009927466382,3.153566743158964,2.79444758531161,3.702809226906426,0.4085437022835887,0.4137976702461101,0.0301112352057618,0.3115518940069768,0.1726221372879579,4.982404111758136,0.464596659484485,0.0236125343288754,8772.700340149146,35344.80563503642,0.1080922122023569,0.0704014373453278,4.310629195308152,0.1102311817385621,0.3511313039469402,0.3597072369741967,0.196584090021808,3.3987654938954034e-09,0.2343203031321842,0.2256719910537564,0.2274015416371717,0.1819333844612444,1.8704609146383744,3.598210810939975,0.3655739401903135,0.130826745911648,0.0513744898359653,1.9708906192497533,4.340543517256901,975.365975333504,0.3448134019201602,2.19608820546902
AOM-family-pruned-cv3-numpy,0.0607920585189263,7.985767249607535,2.659687634386324,0.7981131551352406,2.510042532506392,1.7633777325064646,3.924817899966023,3.5797432134529945,4.020602093439902,5.197543888046767,75.06023412435084,0.1978674289958093,0.2914470289349864,0.460926087446691,1.290899831735566,1.4204672370620972,2.327531223099358,74.3794691589233,46.18869619477093,50.78026849355031,0.0292503884628948,0.1460580326231108,3.2098879761585923,3.2590574853350103,2.958364440526001,0.4531409528465576,0.3253825229113011,0.0318207433105703,0.3040285089519362,0.1675785126866648,4.887526524373024,0.4412400921726097,0.024333873847334,7931.832365109506,33811.329675840665,0.0948251785233808,0.0568684909881382,4.197357980537094,0.1205564918695791,0.3601645756447585,0.3226672458637098,0.1866017633023164,3.398765515452267e-09,0.2287746993631384,0.2031003999099394,0.2837044671027955,0.1819919165673409,2.0953732364004165,3.70381483028591,0.3230913532632832,0.1335948101142046,0.050349948888456,1.5689519009133872,4.281733838228362,1006.270079417455,0.3484080020363488,1.870756941109065
AOM-family-pruned-numpy,0.0648055203660351,7.734003573596195,2.682676328466274,0.7946789148284605,2.7139103747227566,1.7226059052206846,3.904052294157023,4.236296771791323,4.50133428741381,5.117988787348385,72.78278528303186,0.1657144157253136,0.9473565532735876,0.5490983541729934,1.180774063899094,2.0181761646619942,2.327531223099358,62.98913243310813,43.260885031018695,50.78026849355031,0.0292503884628948,0.1672200488950567,3.1747032937942907,2.926505684604125,3.1671818107462,0.3759896391020144,0.2087881070827509,0.0336941862356928,0.3098774365028773,0.1728182123039682,4.887526524373024,0.4673668951096608,0.0198501054560535,10114.137788657295,34317.06383479272,0.1102797481836823,0.0568684909881382,4.216280087340131,0.1289940014552297,0.3494710216381107,0.33867624142498,0.1888011334684489,3.3915181732067243e-09,0.2574804730873216,0.203609981862407,0.2661635479999639,0.1829625689274641,2.0953732364004165,3.060554269812682,0.3707138773892219,0.1284242524557362,0.0504110176517944,1.7609425297162011,3.9660707429302735,968.3041110689866,0.3513128408267453,1.870756941109065
AOM-response-dedup-cv3-numpy,0.066215313155246,7.629385118910542,2.3732907931485108,0.7496302537427638,2.447988423023843,1.703360453226962,3.924664127092537,3.457516940570136,4.639283068858939,5.197543888046767,75.09710974076586,0.1540369600093148,0.2263242761622163,0.460926087446691,1.290899831735566,1.4222837134215582,2.578181266849206,67.00164888274625,46.18869619477093,50.78026849355031,0.0291321933864711,0.1574171669824904,3.2098879761585923,2.999921767660517,2.8694085513110474,0.4044716236525368,0.293245185338936,0.0325248904035239,0.3040285089519362,0.1763570130225637,4.88659794253554,0.4438341526466796,0.024333873847334,7930.904001931568,33811.329675840665,0.0948251785233808,0.0593758872776102,4.197357980537094,0.1311051289512277,0.3568422380870132,0.3222596469497696,0.1905974591997972,3.398765515452267e-09,0.2287746993631384,0.1907353896202484,0.2804748394320119,0.1815471276093411,1.9234312151181447,3.5982168413879525,0.3184895299802649,0.1289230925980577,0.0505144682942006,1.6156294495131889,4.281733838228362,969.8446386488874,0.3484080020363488,1.870756941109065
AOM-response-dedup-numpy,0.0602139375074292,7.689144687644411,2.553922952754928,0.726808772273078,2.7181724835994707,1.731305024222917,3.904052294157023,4.214963676496385,4.395372997755809,5.524703973348429,72.78278528303186,0.2196471405127135,0.2336291651514668,0.5490983541729934,3.675312420073168,2.0181761646619942,2.327531223099358,62.98913243310813,45.39112303504521,50.78026849355031,0.0292503884628948,0.1672200488950567,3.2392441601603856,2.7299217516730865,3.7028092269063935,0.3722321369439038,0.3770677218964058,0.0332806883930885,0.3084674661505063,0.1728182123039682,4.916851604393229,0.4653770990478892,0.0198872171200884,9193.25014249618,33956.91299938944,0.1147503933786207,0.0592520617325704,4.1817141137302505,0.1289940014552297,0.3491175988417033,0.3393929425576861,0.1888011334684489,3.3915181732067243e-09,0.2573186781052314,0.2730388957282633,0.2646925694307607,0.1843240700858512,1.9234312151181447,3.014891284972755,0.3754052565328526,0.1394352922016267,0.0504005592490464,1.6156294495131889,3.9660707429302735,976.9962864030542,0.3513128408267453,1.870756941109065
ASLS-AOM-compact-cv3-numpy,0.0605969545378215,7.602388101928504,2.267624180397946,0.7804626452849249,2.444098417183936,1.5485802707770282,3.480108579462335,3.569770198727373,4.456021448968085,4.891762756671337,74.85313800725497,0.2368898225553062,0.235240602571549,0.7387976677573145,0.881698340051363,0.877210263357179,2.4366343292371058,49.00707479417701,53.60913374119376,39.90910048985883,0.023698596821882,0.1842778244484035,3.288443808056229,3.852012325961155,3.070016662310726,0.3908172028235602,0.320927853314207,0.0329009912248967,0.306557034293252,0.1786778263982131,5.322094815683736,0.4643475179751221,0.0218862867432378,7892.168943164892,33702.37703438236,0.0919734915976879,0.0582191566341861,4.234870426949205,0.1465142139597966,0.3773973960885146,0.3134299730660613,0.2082684618802971,9.305603463325765e-09,0.2282633518353795,0.3194549265892003,0.2844048615123822,0.1861443271639246,2.3610909962213937,3.697718775126764,0.3437525030584173,0.1300639415779864,0.0516603095713994,1.5624539916638125,4.278086706491186,982.2121128570066,0.3384585105112708,1.9361678347622104
ASLS-AOM-compact-cv5-numpy,0.0605969545378215,7.235524415543641,2.2907590514339287,0.7804626452849249,2.6686562869736896,1.56066938188002,3.7911966874422927,3.622234351157957,3.617613255820191,4.977813573445099,72.9760560708558,0.2368898225553062,0.2537831878709551,0.4371357596760806,0.881698340051363,0.9862896201110516,2.4366343292371058,55.75803496577898,53.60913374119376,39.90910048985883,0.023698596821882,0.1818261145435869,3.224619517838365,3.113807034100241,3.1403701740773715,0.3842797212770678,0.320927853314207,0.0307229971751573,0.3042137031517866,0.164560802119294,5.322094815683736,0.4655609663459165,0.0218862867432378,7892.168943164892,34084.86211163086,0.0926868587859671,0.0582191566341861,4.234870426949205,0.1132649379468528,0.3494512531568541,0.3134299730660613,0.2104909387468921,8.706253867768506e-09,0.2282633518353795,0.3194549265892003,0.2656678215792209,0.1863311930096932,2.277125418775644,3.697718775126764,0.3267842243993711,0.1297791056854143,0.0504891046912075,1.311399393762144,4.2133237741802345,946.433029780042,0.3384585105112708,1.9361678347622104
ASLS-AOM-compact-repcv3-numpy,0.0574696067456109,7.3435968168757375,2.2907590514339287,0.7804626452849249,2.6686562869736896,1.56066938188002,3.511405643428353,3.622234351157957,4.114750976923746,5.172397093921704,72.9760560708558,0.2368898225553062,0.235240602571549,0.508840795528155,0.881698340051363,0.9862896201110516,2.4366343292371058,55.75803496577898,53.60913374119376,39.90910048985883,0.0244667316621628,0.1842778244484035,3.224619517838365,3.109731559666989,3.1403701740773715,0.3908172028235602,0.320927853314207,0.0329009912248967,0.3042137031517866,0.1786778263982131,5.322094815683736,0.4643475179751221,0.0228984218483996,7892.168943164892,34034.132987776655,0.0926868587859671,0.0582191566341861,4.234870426949205,0.1059714743054243,0.3629277660379881,0.3134299730660613,0.2046954612376105,9.102417931780657e-09,0.2282633518353795,0.3168263316355039,0.2844048615123822,0.1863311930096932,2.3189440231362566,3.697718775126764,0.3437525030584173,0.1297603953761085,0.0497895945232568,1.391796307735008,4.278086706491186,1013.8642066044056,0.3402074117242379,1.9361678347622104
ASLS-AOM-compact-repcv3-oneSE-numpy,0.0629566271446675,8.223398747608359,2.267624180397946,0.8897587506291655,2.4645682174602377,1.6750594394491818,3.89541544342053,3.668081156627861,3.974444970256122,4.891762756671337,73.19344698768778,0.2368898225553062,0.2537831878709551,0.625883883258245,0.7578697550591629,0.9722356737260496,1.6231701535049925,47.64947851099329,43.75897572664464,40.81606991340069,0.046804113786403,0.1750835488524015,3.611614764357246,3.721416449638587,3.9095981536124,0.4141378053294703,0.2727675269606633,0.0309653495029494,0.3240428733973912,0.1796139689320273,5.516186654966037,0.493726236638934,0.020328488128924,7909.723698435564,33965.14005957723,0.1111307609863663,0.0630883874451917,4.249565744451436,0.1356252301044387,0.4112476381319636,0.4039753674502426,0.2002982282217129,0.0004626689831771,0.2385262251398832,0.2504366386840956,0.30414985326839,0.1854646194435272,2.3574532068316767,3.697718775126764,0.283413905881624,0.1288466626762775,0.0507295159077682,1.448725084603436,4.39314166328816,1027.2748442035447,0.34652398962573,2.012170102155733
ASLS-AOM-family-pruned-cv3-numpy,0.0605969545378215,7.859148413749101,2.4634795670364484,0.87944646136286,2.5495701415939536,1.6513237996820036,3.4882356598529216,3.581986028182468,4.3692891265310045,4.932244736480458,73.94447486436268,0.2492897319910345,0.2954817635164128,0.526603328294374,0.8804559718919874,0.877210263357179,2.400900876571108,45.8605164936092,53.60913374119376,43.51948641169348,0.0223537070892451,0.1997906578082584,3.3079268448200163,3.852012325961155,3.1299828762241324,0.38443539989274,0.320927853314207,0.0305310223132679,0.3075191522653666,0.1786778263982131,5.322094815683736,0.4655609663459165,0.0219572479297382,7901.490513900655,33702.37703438236,0.0919734915976879,0.0579269191501443,4.234870426949205,0.1436221509031471,0.3546684447567021,0.3138654754924539,0.2040382668868003,6.867320343376056e-09,0.2282633518353795,0.3122658393046436,0.3042177003224225,0.1863846987244122,1.9718218714283595,3.846858931964584,0.3225912032012054,0.1300639415779864,0.0516210248995503,1.3851426727664744,4.025515635455454,1011.9529354234924,0.3260240211194692,1.8360048550874792
ASLS-AOM-response-dedup-cv3-numpy,0.0618602034922345,8.19563531224081,2.322232045761895,0.7804626452849248,2.318901754061266,1.5907997354560552,3.414697830100395,3.693885061746556,4.78563231563914,4.932244736480458,74.85313800725497,0.2121763486340599,0.2398242485840017,0.738797667757316,1.1710332625316544,0.877210263357179,2.400900876571108,62.0163649037968,53.60913374119376,43.51948641169348,0.0230276198491147,0.1997981922369785,3.288443808056229,3.274909539821963,3.016035123784715,0.390191821130773,0.2967321066013404,0.0275312994444184,0.3061951345435835,0.1786778263982131,5.322094815683736,0.4731936400253375,0.0218862867432378,7889.318529088604,34427.53074824441,0.095056148461258,0.0593391793549758,4.234870426949205,0.1436221509031471,0.3546684447567021,0.308374776345024,0.2040382668868003,5.4147951108106915e-09,0.2282633518353795,0.3369585031866592,0.2844048615123823,0.1861443271639247,1.9283937462778096,2.982131069729971,0.3557979290912006,0.1302005928575034,0.0508324089265141,1.5636099423725154,4.025515635455454,960.8262966974928,0.3260240211194692,1.8360048550874792
ActiveSuperblock-deep3-numpy,0.0699604492283229,9.830255411034646,2.8383633489570235,0.9458850335283312,3.219534721161406,2.10578929325474,4.415844963023101,4.299894194553233,4.737870788541779,5.189015112365241,74.20764903031309,0.3625219545394263,0.4019776930773105,0.2865470127149003,2.167604629191287,2.0415227991250893,1.729377004203946,71.63046521797216,42.20858910957918,48.28923641036824,0.038438803641298,0.1523946862223884,3.207362107155744,2.791245960549909,3.086272468656288,0.4904175639106915,0.4265698679679446,0.0342474021387006,0.3065746445035593,0.1699336305789882,5.088449209663287,0.4638586423138739,0.0252201430034237,8421.809846158898,34651.79461669505,0.0949496251450458,0.0585675932333016,4.390157990267636,0.1220693757499355,0.3484320991869408,0.3345266741210295,0.1892002362144598,0.4036314151853823,0.2741069763176885,0.2566230860899721,0.2878496665402203,0.1765886194458295,3.3856203704177856,3.8706161701686073,0.3333385305482843,0.1327789718532354,0.0479395625579471,1.898905750458013,4.129885622310394,980.7136214345372,0.3419406286813891,2.3110585647420394
ActiveSuperblock-simpls-numpy,0.0697520768619498,9.685367076678686,2.8109182115740405,0.9302343998568668,3.18692486144264,2.093141920755266,4.404988607326972,4.30653058606366,4.762953387895385,5.147899833516985,74.23353912841772,0.328018488419048,0.3857593277721637,0.2868918603505263,2.2216133123276607,2.0415227991250893,1.7021842642736176,69.9795765737768,43.17578006566488,49.45580921691402,0.0419260100164354,0.1520063806882927,3.166042680048914,2.766548259317486,3.09628158513161,0.514863485017608,0.4196840920228069,0.0343117218602347,0.3078912599228086,0.1692025353378603,5.085866475908115,0.4636382604721885,0.0252687757801016,8342.030806755025,34553.56594059344,0.095767529259159,0.058313278921877,4.429873739191238,0.1203839818457099,0.3460856577252686,0.3338038885078084,0.1890658230942813,0.0002093235918236,0.2781613469356897,0.2610234517962276,0.2886377399825804,0.1759886323484429,3.390193212610795,3.9776910531886727,0.3333893423935116,0.1323898826966531,0.0479331532005323,1.8927131284833083,4.130903753481008,978.9377890908784,0.3466695564202358,2.289569021809688
LocalSNV-w101-AOM-compact,0.0570306404056327,8.38805714972203,3.022005225577121,0.915316443204046,3.3631349861599213,1.7702180414936244,3.378092955545297,4.345288067389603,3.8502697913609136,4.787655578538395,70.84151548324724,1.0578093818316263,1.4116421602784357,0.3449341222770113,1.0875048741591131,2.177075748396245,1.3859639793603136,70.10016683931752,56.96393531258556,56.9377144163604,0.0589935567204045,0.1452617583472376,3.936280593340206,3.293933090859236,3.1979881084054886,0.3478767548699426,0.3640425935552285,0.035692035959465,0.4595030626516424,0.1549883680277876,5.34911013541259,0.5491333140927286,0.0210793098931426,8478.757584165074,35067.28529985596,0.1063567278724561,0.0859239587286754,4.694957903364782,0.1002366942742503,0.2917342943125289,0.2694214619779919,0.1602075815824815,0.0156068909660867,0.3562872816166629,0.4097654535342435,0.2573896747182022,0.1907127401240307,4.940243776117256,4.125747085329214,0.3722136367862537,0.132851976661998,0.0532727520178435,2.3140602651726843,3.801953362644862,1092.3672175014424,0.3211140393069012,1.873009001224714
LocalSNV-w31-AOM-compact,0.0678314750918347,8.360229412948552,3.4892951104983463,0.9726852546914966,3.491576022245632,2.1228472621650742,3.5933422009415263,4.492819762867573,3.9326932016300735,5.348889584242192,76.44135897544295,1.8601958873983595,2.1812922256387752,0.4686394560486044,1.7684482229008387,0.8933272371050937,1.4979989693061848,52.88131010451875,52.62630936091988,57.335094569262125,0.0569294506753502,0.1797266082401261,4.402120062761688,7.03472003862302,4.725964185835456,0.3232798782595188,0.325014296914802,0.0350847551438359,0.5818535580738999,0.1892349155385739,5.666497616832453,0.5594731704044085,0.0217405672271498,8325.696749116807,36632.11002334016,0.0909502470961486,0.1351170525820983,4.53825777981878,0.1407392158253675,0.3189166085821966,0.3096250835913803,0.1964726753619356,0.0082494341863513,0.3616078601700423,0.3578875515062937,0.2998898153126211,0.1926535218096513,4.794251729934542,3.4568022877114566,0.3707546890256279,0.1319813668121278,0.0525879398208114,1.6042683612412882,3.699332549292051,1293.1014249141797,0.2989489351563514,1.843743899622612
LocalSNV-w51-AOM-compact,0.0618425087208686,8.075678244730788,2.96316556917085,0.9039323741505452,3.2821215032312,1.6768192939487885,3.7703095669102695,3.9346929536819473,3.867218678119905,4.507352991289813,73.27180441354736,0.5872346866180144,0.6951028849063728,0.3855258355344262,3.1535261521582503,1.0724533878941551,1.699964974431609,73.58806117975753,70.31079242138415,61.047496181759136,0.0546441768755921,0.1543486927343195,3.7184470627877486,3.7031875406142247,3.807049273417896,0.4047762952772488,0.2232850222451335,0.0343358745856752,0.4880529029716396,0.1812812365403841,5.7189692029831525,0.5966592804605138,0.0207754411725707,8234.3991399544,35970.01242250006,0.0977299329088413,0.0864601241585767,4.614564405479593,0.14107468582651,0.313137429622946,0.2826226658720218,0.1746700808659452,0.0094700433214242,0.2629540492717397,0.4222295657229106,0.323685588043916,0.1918215606737746,4.928272238055908,3.804225996848561,0.342126008859309,0.1316389061669775,0.0544997346185788,1.661645448889043,3.710948934762508,990.7629822032328,0.3010481106191599,1.8367756580452608
MSC-AOM-compact-numpy,0.0646651738960257,8.276805103282088,2.707969454559082,0.7483479961893034,2.789235205520499,1.8529775543800384,3.684156779849176,4.124349098180924,4.50711304954593,5.06694765092494,72.5824907335787,0.201453390297095,0.266800677100485,0.8781600977777931,3.1611699829648874,1.7591400699294957,3.437845521790449,70.28121310231462,72.58398462073671,71.02386380653773,0.0534434337420358,0.1375181675961425,3.098618243967272,2.915844331722224,2.9855792580564,0.3961313609099784,0.3136681814427359,0.0340037137304644,0.3096056287973204,0.1726661382002968,5.051067148156326,0.3890829242977446,0.0189163724938811,8472.680379034544,34904.14377060782,0.0806139841995143,0.0593287345566036,4.220471563882716,0.1237908309996681,0.2854161915625445,0.2628863264775327,0.1914528120238378,0.0875721153840137,0.2369963834970944,0.4685332661559325,0.2800812476046836,0.1825720314770105,2.4079701964945013,3.912322907557317,0.3737541311231624,0.130449339282713,0.0521218124126748,2.1094886015892818,5.055552310636436,966.3917578728004,0.7419331381849696,2.7321205920219227
MSC-AOM-default-numpy,0.0765308426858228,7.84251411814111,2.7079538359284743,0.7508654194026074,3.086741578166765,2.0337964875600725,3.87257024453236,4.553693285090473,4.336725762487005,5.407312570812179,72.57166076176922,0.2281897972475322,0.2326972760278008,0.9071242544527776,3.0187916830058508,1.7591400699294983,3.145695886995095,70.28121310231462,54.989719407106186,71.02386380653773,0.0534434337420358,0.1543515769567561,3.094094716549574,3.742939266211229,3.323640260276154,0.3627177039682497,0.3828203753822024,0.0323576017569861,0.3102939539038506,0.1726661382002956,5.178527502905829,0.3962913672482179,0.0216674589865411,8472.680379034535,34150.46987648045,0.0795029794729527,0.0560960597112178,4.25948638992065,0.1187888737541651,0.2889384631098276,0.2720205789380152,0.2010137498435187,0.0875721153860164,0.2586398987289565,0.4336347671109747,0.2376193580405404,0.1929546834354194,1.903041063728724,3.7403191148204464,0.3737940884291175,0.1315249091366835,0.0500025180834914,1.9842425650677205,4.381753306810958,949.605246503676,0.3922283368889769,1.97814642020762
MSC-OSC-AOM-default-numpy,0.0981593024139442,10.02981694895369,4.301740932207497,1.510957067370193,4.949249365212321,4.287099987164727,3.400311793196515,4.189047400249845,4.192566648970598,4.437272588702252,96.68777796931757,0.2571913649090565,0.3022793835020914,2.0246862652119217,4.463196175378579,1.8374923632979303,2.286674733758931,8.835973785493042,13.988642344846005,15.040509018805423,0.1696841745028631,0.7438593101659337,14.052797532053551,17.17351516395311,14.363227196548255,0.931668858734491,0.3595544713236416,0.0331951348706994,0.5598292140117909,0.1620793591339539,7.240618619698728,1.0612359200783972,0.0196946286917877,7801.336465114307,33928.16134732926,0.3545062179610622,0.1608380166296689,5.170934225700713,0.1153857218587976,1.361169266496779,1.3624771619553806,0.1616037060161844,0.0798845004519034,0.3539464179998039,0.4101201897649754,0.2549861723385946,0.2476322042680121,5.368848708464804,6.604957294373925,0.2223309496603175,0.1546874438008419,0.0610316456414566,1.816289058498309,5.352816057134013,1464.659089759918,0.4494186972018892,2.404471120462171
OSC-AOM-compact-numpy,0.1023686841346503,12.78288992640672,3.6888394499431048,1.780355071540715,5.961540697825384,4.018497850579845,3.444270786849549,4.1511390895590585,4.192357848903831,4.360234508164494,98.5547886481138,0.6466576697497451,0.9263079540752468,2.660757607998374,4.18274762736077,1.776814470112515,2.941807313240229,35.95856266665289,31.11852083427929,33.50686450600391,0.1610556534754421,0.7833972164124093,14.001287621376571,16.78170068706934,14.33789108431086,2.355354374660503,0.2197120272732299,0.0363721780408954,0.7899358732083801,0.1976101134818079,7.233211795385353,1.1036682689192845,0.0204575817661099,7951.745314171651,34046.713937708606,0.4148510969964272,0.1613982600487445,5.185963333364344,0.1608139755292897,1.3340150141552087,1.210488124513008,0.1749560705048156,0.1324036037853419,0.3668908525654841,0.437006855421438,0.3717019095058989,0.2396734807517034,5.324008711949575,5.521071901035189,0.27036993975482,0.1551781504783931,0.0654805726176293,1.7477118631901527,5.382452216388611,1481.068695904108,0.4521659000253047,2.4279130409434027
OSC-AOM-default-numpy,0.1036270525112136,12.407825536538333,3.6888394499431048,1.8470784796165665,6.095289902596893,4.0140744396469294,3.4710614639860022,4.160144506703597,4.20631451638576,4.363803459462811,98.56159295568284,0.4865003319957321,0.725418620259406,2.3912013438825768,4.981250839515801,1.7770558513473294,2.9411198852239986,35.29110390550854,33.27458472021222,33.86274528911794,0.1610605382078074,0.7871328843487287,13.99046537486864,17.18608706138596,14.331172566882511,2.35217196558127,0.2206112711949767,0.0363529261456814,0.7854564001772175,0.2068626877822362,7.220749918249209,1.1036682689192845,0.0199995851466987,7941.744041173338,34046.57973212318,0.4194527631585566,0.1613782042248627,5.187913986401497,0.1615362526095711,1.336210282809295,1.210488124513008,0.1753453997162188,0.1324036007410617,0.3668908525654841,0.4498849952128539,0.3519799611909314,0.2396699117288379,5.326514806647345,5.43945686290914,0.2545362462726835,0.1551781504783931,0.0655934880103398,1.7477118631901527,5.383867377468955,1481.0559226245289,0.4521659000253047,2.4279130409434027
PLS-standard-numpy,0.0596920317134281,8.735720415945678,2.593980584929294,0.7946789148284632,2.3882032646623186,1.7433441566374508,3.8675945555060345,4.314700311608212,3.863437771536008,5.1975438880467655,74.82383662125208,0.5783836208398858,0.9263079540752552,0.4196763112966035,1.1544618734444572,1.7103507371910391,1.601807477386274,70.98125640039986,42.137258929172674,49.62585242726549,0.0662781069598637,0.1972009927466326,3.153566743158967,2.794447585311599,3.137451600951606,0.3993313416988594,0.2967790298425745,0.0312437833300191,0.3177031876622876,0.1911881161616511,5.35964769022926,0.5152297573011926,0.0227976081058835,7953.722591100652,34187.77637020566,0.1011945659801014,0.0588361629987956,4.410214962452098,0.1057804599657981,0.3511313039469382,0.3537750581711363,0.1812838891242657,3.3987655165869764e-09,0.2287753653898592,0.2041572375797028,0.3157744227206742,0.1785767474579984,3.2446926368545626,3.9911518618136697,0.3655739401903101,0.1366613113691301,0.0502242639342961,1.4576145661742068,4.427724806691203,999.9623686959302,0.340482309324476,2.1787115855745847
POP-K3-numpy,0.1006903060232505,13.169697665026252,3.578248286581456,1.805172142483089,6.15569926738711,3.29492573546039,3.451019126332185,4.1663827437574685,4.177014690712271,4.451894568122056,98.65721397961586,1.869881415665932,0.8430589764912714,2.0353364176039,4.250840070360239,0.9997324200877462,2.759043605194155,39.1586470276985,27.78181943427569,33.74543032446264,0.1603656473140736,0.787584488525021,11.523020904374231,16.782243789117185,14.3387986823669,2.364135280213264,0.2069377013884682,0.0350443566782395,0.7740953809951939,0.1873916403215897,7.112324889912621,1.1124736391832324,0.02003940902873,8101.175506584578,33934.39483016067,0.4511898778779377,0.1618783300271523,5.179991990142263,0.1419149266079284,1.392259042109866,1.3954994258931592,0.1608227877735238,0.1338537754672566,0.3628022215573137,0.4259242378067027,0.3886710021618169,0.258430143425578,5.323802664312729,4.557233478115758,0.2521910820267898,0.1624630251228978,0.0659980875181029,1.7341190418834105,5.4010323423955775,1481.6602151419752,0.4608383449456909,2.4654537674766908
POP-K5-numpy,0.1006903060232505,13.169697665026252,3.578248286581456,1.805172142483089,6.15569926738711,3.29492573546039,3.451019126332185,4.1663827437574685,4.177014690712271,4.451894568122056,98.65721397961586,1.6400382291186786,0.805714090888377,2.0353364176039,4.250840070360239,0.9997324200877462,2.759043605194155,39.1586470276985,27.78181943427569,33.74543032446264,0.1603656473140736,0.787584488525021,11.523020904374231,16.782243789117185,14.3387986823669,2.364135280213264,0.2069377013884682,0.0350443566782395,0.7740953809951939,0.1873916403215897,7.112324889912621,1.1124736391832324,0.02003940902873,8101.175506584578,33934.39483016067,0.1870534559748103,0.1618783300271523,5.179991990142263,0.1419149266079284,1.392259042109866,1.3954994258931592,0.1608227877735238,0.1338537754672566,0.3628022215573137,0.4259242378067027,0.3886710021618169,0.258430143425578,5.323802664312729,4.557233478115758,0.2521910820267898,0.1624630251228978,0.0659980875181029,1.7341190418834105,5.4010323423955775,1481.6602151419752,0.4608383449456909,2.4654537674766908
POP-K8-cv3-numpy,0.1006903060232505,12.782866826748444,3.864222654477441,1.805172142483089,6.15569926738711,4.067826985791897,3.425707728618633,4.1663827437574685,4.177014690712271,4.358986074021438,98.65721397961586,1.8979803703788427,1.9095572026376817,1.601214568640274,3.7878100955845793,1.4578726825652086,2.759043605194155,39.1586470276985,27.78181943427569,33.74543032446264,0.1612335304233722,0.7844891703347164,14.040696039800384,16.781559065271853,14.334156968659968,2.364135280213264,0.2198509040701709,0.0352323835492644,0.7818080343317108,0.2004512001720939,7.093686573583439,1.1124736391832324,0.0207541512175027,7930.904001931568,34004.92415268454,0.4511898778779377,0.1618783300271523,5.179991990142263,0.1515139776739444,1.392259042109866,1.3954994258931592,0.166590162149872,0.1338537754672566,0.3628022215573137,0.2657889924022123,0.3886710021618169,0.258430143425578,5.323802664312729,6.517886074456363,0.2601658890769751,0.1624630251228978,0.0659980875181029,1.7341190418834105,5.4010323423955775,1481.3536625710092,0.4608383449456909,2.4654537674766908
POP-K8-cv3-oneSE-numpy,0.1006903060232505,12.782866826748444,3.864222654477441,1.805172142483089,6.15569926738711,4.067826985791897,3.425707728618633,4.1663827437574685,4.177014690712271,4.358986074021438,98.65721397961586,1.8979803703788427,1.9125834707397644,1.601214568640274,3.7878100955845793,1.4578726825652086,2.759043605194155,39.1586470276985,27.78181943427569,33.74543032446264,0.1612335304233722,0.7844891703347164,14.040696039800384,16.781559065271853,14.334156968659968,2.364135280213264,0.2198509040701709,0.0352323835492644,0.7818080343317108,0.2004512001720939,7.093686573583439,1.1124736391832324,0.0207541512175027,7930.904001931568,34004.92415268454,0.4511898778779377,0.1618783300271523,5.179991990142263,0.1515139776739444,1.392259042109866,1.3954994258931592,0.166590162149872,0.1338537754672566,0.3628022215573137,0.2657889924022123,0.3886710021618169,0.258430143425578,5.323802664312729,6.517886074456363,0.2601658890769751,0.1624630251228978,0.0659980875181029,1.7341190418834105,5.4010323423955775,1481.3536625710092,0.4608383449456909,2.4654537674766908
POP-K8-numpy,0.1006903060232505,13.169697665026252,3.578248286581456,1.805172142483089,6.15569926738711,3.29492573546039,3.451019126332185,4.1663827437574685,4.177014690712271,4.451894568122056,98.65721397961586,1.6239359891465075,0.8135900901653486,2.0353364176039,4.250840070360239,0.9997324200877462,2.759043605194155,39.1586470276985,27.78181943427569,33.74543032446264,0.1603656473140736,0.787584488525021,11.523020904374231,16.782243789117185,14.3387986823669,2.364135280213264,0.3675716183573173,0.0350443566782395,0.7740953809951939,0.1873916403215897,7.112324889912621,1.1124736391832324,0.02003940902873,8101.175506584578,33934.39483016067,0.1066433407999539,0.1618783300271523,5.179991990142263,0.1419149266079284,1.392259042109866,1.3954994258931592,0.1608227877735238,0.1338537754672566,0.3628022215573137,0.4259242378067027,0.3886710021618169,0.258430143425578,5.323802664312729,4.557233478115758,0.2521910820267898,0.1624630251228978,0.0659980875181029,1.7341190418834105,5.4010323423955775,1481.6602151419752,0.4608383449456909,2.4654537674766908
POP-nipals-adjoint-numpy,0.1006903060232505,13.169697665026252,3.578248286581456,1.805172142483089,6.15569926738711,3.29492573546039,3.451019126332185,4.1663827437574685,4.177014690712271,4.451894568122056,98.65721397961586,1.624438857764653,0.8123305680952287,2.0353364176039,1.93848616630794,0.9997324200877462,2.759043605194155,39.1586470276985,27.78181943427569,33.74543032446264,0.1603656473140736,0.787584488525021,11.523020904374231,16.782243789117185,14.3387986823669,2.364135280213264,0.3675716183573173,0.0350443566782395,0.7740953809951939,0.1873916403215897,7.112324889912621,1.1124736391832324,0.02003940902873,8101.175506584578,33934.39483016067,0.1066433407999539,0.1618783300271523,5.179991990142263,0.1419149266079284,1.392259042109866,1.3954994258931592,0.1608227877735238,0.1338537754672566,0.3628022215573137,0.4259242378067027,0.3886710021618169,0.258430143425578,5.323802664312729,4.557233478115758,0.2521910820267898,0.1624630251228978,0.0659980875181029,1.7341190418834105,5.4010323423955775,1481.6602151419752,0.4608383449456909,2.4654537674766908
POP-simpls-covariance-numpy,0.1006903060232505,13.169697665026252,3.59252727638258,1.805172142483089,6.15569926738711,3.203798521812651,3.451019126332185,4.1663827437574685,4.177014690712271,4.451894568122056,98.65721397961585,1.8020488175084584,0.8131788125619965,2.035336417603899,4.838187065881693,0.999732420087685,2.759043605194155,39.15864702769852,27.781819434275693,33.74543032446264,0.1603656473140736,0.787584488525021,11.134580923201671,16.782243789117185,14.3387986823669,2.364135280213264,0.3075696021134862,0.0350443566782395,0.774095380995194,0.1873916403215897,7.1123248899126255,1.1124736391832324,0.02003940902873,8101.175506584576,34119.494311564005,0.1543575947361076,0.1618783300271523,5.179991990142262,0.1419149266079284,1.392259042109866,1.379842475358007,0.1608227877735238,4.632316676065561e-09,0.3628022215573137,0.4259242378067027,0.3886710021618169,0.2584301434255781,5.323802664312729,4.554751601351778,0.2521910820267898,0.1624630251228978,0.0659980875181029,1.7341190418834105,5.4010323423955775,1481.6602151419752,0.4608383449456909,2.465453767476691
SNV-AOM-compact-cv3-numpy,0.0621032884827663,7.932251673002561,2.684298016411573,0.7754013927489892,2.6920892400182845,1.8223257726407192,3.88777996573949,3.757274854239136,3.927340611259283,5.089649318868311,72.52391902129952,0.1426024118090958,0.2629621586190809,0.4741820428500742,1.0754217681430578,1.0911822342388668,3.25057209363664,67.07742270027613,50.77478026847046,54.851487749536496,0.0584320148801926,0.1366980161926531,3.1102987429017355,3.055915011702976,3.035036923599409,0.39309429505076,0.3483011706462932,0.0312552412496527,0.3129748096898685,0.1720114283649913,5.11386636072874,0.38573626859797,0.0205658468251476,7760.462965723325,35697.83868480956,0.0797133717363083,0.0580864938195515,4.224068711109451,0.1141188112866208,0.2817943309196508,0.261313477617408,0.1833651392728497,0.0766948623161689,0.2390092682562619,0.2757360495403225,0.2754387474923346,0.1829733265971961,2.216328812921124,4.290463071318403,0.3344901393357402,0.1339770009337522,0.0502501798439978,1.639038285465857,4.979854130395485,954.7412853512552,0.3875751487602099,2.4503506553443257
SNV-AOM-compact-numpy,0.0577981858379845,7.501335895093815,2.684298016411573,0.7892642770749001,2.7762949694804435,2.0052825480187804,3.663345063039398,4.095197895076004,4.465830678783534,5.074390594846375,73.0619240225221,0.2013685129868688,0.2666225967079605,1.0704203982608196,2.745411941736584,1.8904020611203485,3.25057209363664,66.6777087778703,47.66788906580381,55.959428691966544,0.0560633043430345,0.1366980161926531,3.1102987429017355,2.873144470286951,2.924556953814528,0.39309429505076,0.2166475152338284,0.0340052221739491,0.307346873715306,0.1692678440752197,5.083502794380522,0.3868209612903601,0.0223133351256375,8250.795552944859,35588.28544741932,0.0777117948384832,0.0580864938195515,4.242611222291897,0.1200995394399411,0.2808326467849152,0.261313477617408,0.1841557002768255,0.0513078517591732,0.2656565231905903,0.4608590280044481,0.2552675933990025,0.1840663127739677,2.3935220866245777,3.8677081338308192,0.3544590087797707,0.1307208388233883,0.0520768693173698,2.105269166234936,4.742529413222882,942.641546347164,0.3876772684728021,2.4503506553443257
SNV-AOM-compact-oneSE-numpy,0.0684023467077881,8.080910539436209,2.602183632350968,0.8029304964943994,2.9564084204637124,1.8236384772941687,3.7462477349011247,3.757274854239136,3.927340611259283,5.089649318868311,70.66735961681665,0.1426024118090958,0.2539879708326219,0.6135187080108621,1.0702757833675995,0.9509262555300256,2.052381843780948,59.1705959831557,46.42437614366149,56.40447402755279,0.0552341863675401,0.1289565231260683,4.177203738037455,3.967740334644384,3.900902046432255,0.3481490691279955,0.3483011706462932,0.0312552412496527,0.3252832739263925,0.1729429754423626,5.115342579555608,0.3965127535710834,0.0226447525944041,7765.729631963068,34079.92191061139,0.0978121128271019,0.0606855207483259,4.209126777401588,0.1348022426000467,0.3586908897150237,0.3387430207266645,0.1898080718660137,0.0793590860835312,0.23740127091322,0.3393203237117454,0.2863910152890425,0.1855971598628216,2.6547391039115467,4.290463071318403,0.3024353961745882,0.1307208388233883,0.0507151853697109,1.6029642903740318,4.979854130395485,1021.0193543545712,0.4041195034919488,2.4190758577910247
SNV-AOM-compact-repcv3-numpy,0.066788136320537,8.104501106149131,2.684298016411573,0.7384119838475177,2.6920892400182845,1.8236384772941687,3.5803202485445023,3.765012403855043,3.927340611259283,5.089649318868311,72.67222291683588,0.1426024118090958,0.2629621586190809,0.4541629258170855,1.0754217681430578,1.1472056103863495,3.25057209363664,64.12003433917731,50.77478026847046,54.851487749536496,0.0550616293159591,0.1370388070564319,3.1102987429017355,3.055915011702976,3.035036923599409,0.39309429505076,0.2958775237078337,0.0312552412496527,0.3129748096898685,0.1849468237769333,5.11386636072874,0.38573626859797,0.021363675532289,7760.462965723325,33954.32849367002,0.0826314420089051,0.0580864938195515,4.209126777401588,0.119617328828105,0.2867562547601898,0.261313477617408,0.1852732031529524,0.0613762580609623,0.2390092682562619,0.2757360495403225,0.2904329484219697,0.1809738211539382,2.216328812921124,4.17196895079328,0.3318603957690944,0.131905480198985,0.0502501798439978,1.5133026650007424,4.979854130395485,957.1334185312106,0.3875751487602099,2.4503506553443257
SNV-AOM-default-numpy,0.0619421175325907,7.269279493617364,2.621673234739587,0.7349188963097685,3.0526662943038487,1.994575170333642,3.79781959529445,4.59287518764909,4.32548376237473,5.386142744672812,72.55301687265806,0.2281854414854232,0.2325915818800397,1.0704203982608196,2.979368383428012,1.8904020611203485,2.591496551598828,95.53593470275727,53.12800033278465,52.241316956587305,0.0560633043430345,0.1541622969824178,3.293885587388158,3.1134889232135734,3.028884017331274,0.3766029677302629,0.3840883733967296,0.0323650484799103,0.30855349923052,0.1692678440752178,5.368580261204412,0.3958642807003063,0.0223133351256375,8252.631914878455,34635.52322135693,0.0777117948384832,0.0565498135895702,4.26973907155695,0.1160455024714184,0.2861611982186568,0.2688208655620321,0.1998134345166078,0.0518710251856862,0.245760016263662,0.4462321985966674,0.2449859632774053,0.1937904701689789,1.8949182643767408,3.2476080067583992,0.3544590087797703,0.1318338469271885,0.0503904126909967,1.9927807045559225,4.247042161738857,932.586649948704,0.3439198901474636,1.915694170238284
SNV-ASLS-AOM-compact-repcv3-numpy,0.0643323875803086,7.607632911414243,2.5958124862573744,0.7739014414570137,2.8673519842277515,1.7641428634881262,3.77962231206691,3.774869993151164,3.9886878365238143,5.097421283297512,72.89567561347438,0.2501525477128738,0.2582650895699052,0.8939438759350521,1.059007523767702,1.2052076955230504,3.386693764328246,65.92964669802046,51.57849882769701,58.38404356873136,0.057681013673145,0.1606642218155613,3.230321688853193,3.001530417154315,3.107897521385328,0.3755098234887173,0.2179417642917663,0.0320931331095499,0.3036536968437875,0.1774079260705689,5.637224649198433,0.4105477624801252,0.0199383083057409,8286.734934849637,34296.320061949,0.0889322232217998,0.0587494253139075,4.203651601757077,0.1031948335645607,0.2971067283353795,0.2585790093972522,0.1780769289895707,0.017067188859121,0.2411333748537153,0.4602749765858468,0.301204476684956,0.1948572053926899,2.29340793733984,3.2968834109902265,0.3095320751492001,0.1303185254916347,0.0505739050839033,1.4751460396850986,4.97098106768497,998.5661557852828,0.3799760720366641,2.599051170842058
SNV-OSC-AOM-default-numpy,0.0980586482977302,10.0300519720197,4.019986706131942,1.371738404049858,4.5617946158206335,3.713350855672372,3.3995422066555854,4.189205589953956,4.19287919089722,4.437441455633038,96.74884112627797,0.2571886392729809,0.302085188394144,2.0178668171385463,4.471263539889601,1.8376903325479363,2.288179623983812,45.812153069605145,38.813286479563445,45.69054945718421,0.1695352146732317,0.7444619014603965,14.044412894102232,17.208981134034264,14.35283828530438,0.9318163585238112,0.3595030152369804,0.0332046104945536,0.5574706134767418,0.1608729505765948,7.198855917647606,1.0597760898219817,0.0196574111775291,7823.069751260037,34144.76725329338,0.3512043668528131,0.1608312634934497,5.170913262287858,0.1126452410262757,1.355847734047266,1.354667502690149,0.1612768024452666,0.0706493020865789,0.3554359999764673,0.4127376878487417,0.2551424767944527,0.2480306834655962,5.35140219072602,6.5554878295587615,0.2199915768256889,0.1545487078390213,0.0609649779032923,1.8156368901157336,5.3552432463393735,1464.496391835821,0.4487563549829328,2.405525845991971
Superblock-raw-simpls-numpy,0.0595661399307662,8.051895365182393,2.5721798037679977,0.778600742606652,2.6906261413191066,1.7742537535867973,4.090207099059848,4.324342041360461,4.841057345602286,5.22483100427357,74.74748646920496,0.4840009818237816,0.4821967666034137,0.6878219946186349,3.019082236732202,1.961458415156773,1.5986750188877916,70.08189746632372,44.94281039018704,47.72713519601925,0.0669004018957692,0.1973599463815778,3.1597425866270337,2.7795655114591744,2.958643990126626,0.5203664673887622,0.4697894084522395,0.0329369967781742,0.3125373474036716,0.1885730868279003,5.361525981199574,0.5150614496768777,0.0209070989441771,9633.06071274728,35631.91749414301,0.094442190510511,0.0601645882212601,4.400887922915212,0.1085970331727802,0.3516788750363395,0.346006218858781,0.174305323073996,0.9472775682207678,0.2339507436247258,0.2004846690008244,0.2808440817064049,0.1798051837311846,3.3590334949040304,4.179385991122897,0.3504384875169691,0.1316140707637948,0.0486513173011587,1.9425809663077729,4.41630233008364,995.8187006580434,0.3410361777510142,2.2022035178848487
nirs4all-AOM-PLS-default,0.0673304408295096,7.689144687644491,2.5068585941707413,0.7168578848596966,2.718172483599492,1.7226059052206817,3.904052294157057,4.34270165925013,4.353367958873357,5.524703973348358,72.78278528303186,0.204183224569868,0.2107115974147587,0.5490983541729896,4.346934040836885,2.0181761646620417,2.3275312230993297,81.25415965345289,45.39112303504525,50.78026849355031,0.0221767524674975,0.169468096792113,3.239244160160377,2.7299217516730856,3.7028092269062,0.3722321369439163,0.3770677218964304,0.0332806883930885,0.3099387942566558,0.1728182123039682,5.186874935549894,0.4578914547887119,0.0193104629979034,8634.717302626466,35459.12504496321,0.1088748356704669,0.0579541920544847,4.25264082854829,0.1241455025049699,0.3481335738414491,0.3393929425576843,0.1995011306179042,3.3915181690347483e-09,0.2472286670389493,0.2040336712896281,0.2636621588493358,0.1802349854499947,1.887250936411186,3.0921315473314235,0.3414635160305264,0.1392575584438161,0.0504005592490464,1.5559010794745658,4.162902650599791,962.7481467656507,0.351312840826744,1.8733143731199768
nirs4all-POP-PLS-default,0.4152884258009491,40.137911401886846,9.500516949826624,3.521354326792668,10.780141890550446,8.8130185058794,23.61204225006645,21.223067741379545,22.44038859601197,66.16308276596827,564.469562977438,0.9814285852656066,0.9859489486942662,5.866538006161034,10.926274230727335,19.220042144340468,9.058020447168396,160.5726699862574,121.12699871424093,136.23316504096593,0.5305216351389578,4.775560296870935,62.26192494870558,41.50873559937767,58.51485664946043,19.506608753758048,1.7978258110463428,0.1361751793429677,1.1231689119220674,0.4664124640800067,33.94154152044711,7.8647756912691955,0.0671743872440715,48854.85902071287,158707.41522539256,0.5002260183234936,0.5649461939063252,30.4843582433548,0.4878189675096277,2.186392817661916,2.237436068660601,0.3549560208939071,4.276373983219951e-09,0.7210983157134576,0.5901943422549907,1.4673074919957936,0.6474546040053328,39.15419906350674,9.156374229389629,1.7455456646304353,0.3181419301544549,0.240736064113011,11.42082345268236,16.282092464838794,3774.499830009973,1.3012779992271355,8.063477549854117
pipeline-emsc1-asls-osc1-compact,0.1058637618971642,13.156215123644738,6.369052198215475,2.3979149396358417,7.418107541030176,7.173085695210199,3.652350966512282,4.181925539224766,4.1853514854188925,4.40756352564535,99.5097067815984,1.6272870034937863,2.454479902569008,1.9876595505895864,3.9202908336355,1.693300442252219,2.800483747906977,9.380451417481428,14.017400010761811,15.87509578703575,0.1882658547936842,0.7728179082329768,15.23221773575066,19.38249214007846,14.95762074383216,1.0787601041488188,0.2571560978341874,0.0372386337460333,1.0416137512652812,0.2063277950913933,7.851019459464507,1.111369832424,0.0200821572191486,7843.071814315022,36661.06785041489,0.9353581634902898,0.1649528201828229,5.151122783553462,0.1430560955645007,1.4714472849554872,1.46859315302964,0.2036153597920465,0.2533171051868405,0.3570461484416178,0.252964126032294,0.3126738656988201,0.2601329635854807,5.275019308937619,7.417008917558254,0.2382372289510962,0.1695249378366572,0.0663637743302481,1.7669856364507175,5.057893211886266,1502.6132422958544,0.4186609015612031,2.2733233812565383
pipeline-emsc1-asls-osc1-default,0.1058221576656705,13.16424222684115,6.369596628880807,2.3981824234761007,7.421551674974359,7.173085695210199,3.639322443805325,4.1801436523554285,4.279968522622972,4.40756352564535,99.51187593334494,1.6149599992090569,2.4530841864899315,1.9876595505895864,3.988577580996648,1.6934712642944898,2.800450547211917,9.383080289504642,14.01740911727384,15.831744063515458,0.1882658547936842,0.7840386777362555,15.84158407967226,17.420071028071067,14.95202759610839,1.07875886399637,0.2776462671259095,0.0372082674558109,1.0448282764862524,0.2071089419249228,7.851001872903009,1.1113707708057166,0.020101027865153,7842.759794839,36661.19282251677,0.970745642393506,0.1649659039294057,5.150717374667535,0.1439097373709591,1.4725204551186453,1.4686759894908397,0.2039290581115618,0.2537218726176741,0.3592503785916525,0.2519281401875413,0.312673200377374,0.2601329635854807,5.275623002902449,7.414315731931521,0.2382451710695395,0.1705513856776064,0.0664213785841347,1.766981650138009,5.04304484827554,1502.6064817011404,0.4167903765314291,2.273259741770828
pipeline-emsc1-asls-osc2-compact,0.1058645765233802,13.15768519983536,6.369072493958487,2.393669487999302,7.44103760977422,7.172918638843961,3.6536515095706297,4.179451805227839,4.202692639072777,4.4154962214027815,99.5107473122189,1.6276052790508928,2.4544803026406607,1.989565603416261,3.9204154277611294,1.6903203187544755,2.800477532826975,9.383285372142616,14.015841827540548,15.84416982590932,0.1885142605358398,0.7686855074609504,15.920243229001686,23.683411675001995,14.956962451132588,1.0787746227570183,0.2847938479034297,0.0372937338085082,1.0406213271414428,0.2063278348317221,7.853926549673515,1.1113615281470064,0.0200821756241473,7844.0010162111475,36661.09101835874,0.9833254883349968,0.1649538350072209,5.152616798164788,0.1430562292204548,1.4739066513199728,1.4686782158043452,0.2036153691065304,0.2533174016604864,0.3569359807171163,0.2529648076533161,0.3126808144756283,0.2599030512659874,5.289841834171633,7.007648328314658,0.2382568186942242,0.1695261294742368,0.0664113944501873,1.766985554969711,5.054335145883381,1502.6126889886373,0.4186566625939992,2.2734587510151534
pipeline-emsc1-asls-osc2-default,0.1058761085991616,13.175984175473392,6.515626772139005,2.393692198290468,7.44103760977422,7.172918638843961,3.649132664334955,4.179345748463758,4.276427493080041,4.412053734791864,99.50353792773954,1.6276531674618462,2.4530841158049617,2.014366884317092,3.98230727692532,1.690722177562513,2.801363333702121,9.387446886618411,14.019985319695888,15.838666770880971,0.1885142605358398,0.7869924333199506,15.964216785512496,23.718621852504903,14.956936175924726,1.0787786550262402,0.3348381662413963,0.0372735061150559,1.043752474583651,0.2072673129349386,7.851972482278091,1.1113582259210253,0.0200821993422139,7843.92676757465,36669.36889365877,0.9273472698748048,0.1649564800658796,5.152513416192882,0.143056491883242,1.4739861319084364,1.4687859194735295,0.2036154079048567,0.2533174975051235,0.3591604399550378,0.2525353261117777,0.3126207707844897,0.2599030512659874,5.282938468902152,7.007677311226131,0.2382499192996425,0.1702181610488397,0.0663915726228434,1.7669594881666897,5.054803558079331,1502.653038431812,0.4166213594555524,2.2734587510151534
pipeline-emsc1-asls-osc3-compact,0.1059801324447037,13.15322463937122,6.432047602077166,2.3943654313971114,7.441534339856274,7.1728844287587386,3.6532444464322458,4.179647673267802,4.196531399794132,4.430426868673945,99.52999812923304,1.6245263158069614,2.449637722186518,1.98968580633527,3.935391599722118,1.691261403986592,2.800600431587674,9.382769955054068,14.015707192320072,15.832817166108343,0.1837334862729888,0.7697719232933484,15.743039690163773,23.689491183040907,14.9574725965552,1.0787712553444904,0.2698964219903125,0.0372892987669452,1.0405539636360084,0.2063278274820214,7.850742940337622,1.111365945517961,0.02008217595515,7843.8179391588765,36661.52227251216,0.949859831807306,0.1649550887197879,5.152639436589355,0.1430562282959911,1.4739000076889546,1.4685451623232424,0.2036153785719941,0.2533173804329699,0.3567190827537414,0.2529642028517926,0.3126812333041593,0.2597617407269745,5.275584823843731,6.993446169724603,0.2382678994197615,0.169475167521101,0.066411602159069,1.7669839210326594,5.065096092787531,1502.652927523562,0.4188637306368867,2.274071442272053
pipeline-emsc1-asls-osc3-default,0.1059668144511596,13.1658129118482,6.450676576006646,2.394842620819777,7.404769799825492,7.172891766852978,3.64500799217742,4.179432009906324,4.216006549234234,4.408963285899834,99.51612994065177,1.6200220281399005,2.45006195421864,1.9799806988000288,3.99394143238926,1.691381673237672,2.80108274900209,9.3866883896704,14.020122278276816,15.8579108840499,0.1774818952680525,0.9143139837318652,15.864609008066711,23.70658285582347,14.958196886705316,1.078773901511164,0.2814944399805004,0.0372720029088421,1.0457696897967097,0.2070296303379774,7.852552767699233,1.1113646591609103,0.0200822005393591,7843.744466213385,36665.06304871654,0.9265014647648232,0.1649851185393687,5.152425367284827,0.1430564947196823,1.4739794286524983,1.46863976810738,0.20394531096951,0.2533174596653128,0.359475605208039,0.2529648467376315,0.3126232968179918,0.2597617407269745,5.28041113047335,6.993754555960633,0.2382698767780017,0.1709966034946103,0.0663928664850196,1.766977773870423,5.089282061153185,1502.9646126928571,0.4188519571229023,2.274071442272053
pipeline-emsc1-asls-x-compact,0.1061452761102883,23.700332433941668,94.74211976702532,2.392697857616138,7.826461877948697,7.103814578906165,3.7511399640236136,3.9538319221443072,5.721204926665877,4.424095340423716,103.78442261691048,2.153781294295744,2.452242316617052,2.7711863028837267,3.941449332484801,1.6970676361327637,4.764996092849152,10.23538129566502,120.96507210400682,37.860353205400784,0.2147915036143714,18.0623717635132,18.17539157677748,18.47611197388837,24.677745019583043,1.0787634616400614,0.4986833325203759,0.0874376161449791,1.0456738352895438,0.2712224961915588,7.855731128286529,1.1191456509003797,0.0208755031408972,7841.436907361294,38225.13387671765,13.080358032767291,0.1653766492872258,5.151696000410914,0.1747918431017356,1.781827647335173,1.4745629247964775,0.2202693007602049,0.1756350565808178,0.3614073941584131,0.2505821303269531,0.3845422998185535,0.2446834891543766,5.3363871423254166,50.17483254005944,0.7740645225311957,0.1723584078035845,0.4337797730526064,3.221783097957843,12.775907720320928,1499.3233706330875,0.4890598392457989,2.479464981061943
pipeline-emsc1-asls-x-default,0.1051804127605777,23.700332433941668,97.71026643092264,2.379750812400496,7.624103768276571,7.135649054046637,3.679208851493843,3.920550907230109,5.492712912986358,6.663170288100615,103.78442261691048,1.7477633729551918,2.4494288783131006,2.952485192153236,3.930260102957076,1.6970676361327637,8.839768739486434,10.157366934373078,120.96507210400682,39.66387728290191,0.2041280093139514,19.94727942605969,20.84605322045053,17.453958509498424,23.370313797103435,1.0787814400507536,0.6801000638802096,0.0858972817954175,1.0444799261574498,0.2082655771606331,7.8631081609571964,1.1153383732082016,0.0208973965665906,7840.913972875164,37643.951536098895,5.358472518652397,0.1646905891267708,5.193030441092151,0.2410852005156304,1.786454587665355,1.4674461565907346,0.2304912676728422,0.2142088697680877,0.3714242879277293,0.2575286106767283,0.3845422998185535,0.3752121274169434,7.30373363124617,23.728770115573177,0.7201991916047766,0.4358961854280794,0.4418349879728776,4.6976462887127095,12.049371273756924,1510.901796064096,0.4890598392457989,2.165232855016373
pipeline-emsc1-x-osc1-compact,0.1059657078939012,13.182692724577947,6.450620019819741,2.37767979137017,7.438565521759224,7.168372602730196,3.642080560075795,4.200013349663353,4.191433942826509,4.408215876761567,99.57794565322746,1.6783559634739624,2.454914150146525,1.9743648119057624,3.902228470251055,1.7078217301370937,2.801096449399103,9.375511151204377,14.085333692462331,15.82648933678468,0.1744037533126631,0.7836881036252475,21.05040813438736,18.44796024193727,14.96123015881624,1.0868528277944776,0.2555499333753666,0.0373484709742397,1.042017732268791,0.2062610771398704,7.854722963230405,1.1133875986056827,0.019950641283342,7791.389585854382,36512.51477498633,0.9620024258150226,0.1650164160858758,5.15147556822069,0.142284081221318,1.468735502553104,1.468808160545181,0.2038115738110511,0.2509000526668802,0.3556661964572133,0.2492798436816384,0.3163084050339654,0.2609275967674218,5.25082879336269,8.162117036243425,0.2379879071501622,0.1700327419196304,0.0664228294940725,1.7656461815066924,5.167919825562775,1503.8530067543047,0.4287497650431349,2.307113777671568
pipeline-emsc1-x-osc1-default,0.1057946902426304,13.182692724577947,6.450620019819741,2.378965292450596,7.425833826452438,7.168298908806167,3.702465748657785,4.19937053785738,4.191433942826509,4.408215876761567,99.57794565322746,1.6888268539011786,2.455802364533493,1.977108649952119,3.9092846246543225,1.7078217301370937,2.801146619700879,9.37567988612565,14.053396839288787,15.821615228210131,0.1738424884081043,0.7778838007414592,21.351428079938724,18.506959953362927,14.97142523922147,1.0903822102926288,0.2555499333753666,0.0372534991565409,1.0419982661588196,0.2062610260583358,7.854870946393617,1.113112502655939,0.019948588498109,7787.52496654159,36466.8471833538,0.962163829678868,0.1650264771736952,5.151783552762628,0.1423376709161358,1.4687005836690346,1.4688602147592449,0.2038115738110511,0.2509000526694726,0.3564252862042715,0.2492798436816384,0.3163095549233775,0.2609254517849116,5.248595113192557,8.192327481912177,0.2379296328320763,0.1746265093590711,0.0664195935737174,1.7656254005562668,5.226298835073072,1503.4012750493682,0.4289072785825889,2.3072634065969595
pipeline-emsc1-x-osc2-compact,0.1058028875412699,13.175700454102492,6.487498268163431,2.3807442792402163,7.438703546986878,7.1667591482791,3.642194641283667,4.199376973974169,4.1880223627042,4.407755070683233,99.5794039459864,1.6742513073862229,2.45459062924133,1.9741521609624968,3.881160863454643,1.7080309960831843,2.802204094836277,9.376445569900026,14.071162488566264,15.823900200310694,0.1745385614272413,0.8258277733722581,20.815953558301,18.35060411397873,14.96089658827412,1.0879602121183598,0.2589278481049589,0.0372438017265651,1.042146724926692,0.20625864874049,7.854695092833004,1.1149547829825284,0.0199506393897092,7797.562744803755,36516.20209426762,0.9618659299960076,0.1650142257651929,5.151477013369499,0.142513153221758,1.4701366819127395,1.4685761045665695,0.2038038690319794,0.250900052671948,0.3562538489166743,0.2493050202132593,0.3164194514347349,0.2611805300587098,5.251173293752693,8.23841742938409,0.2379884342921761,0.1705239541196557,0.066420828051229,1.7656581296015843,5.1843323897506695,1503.758674587751,0.4226881158637858,2.30648988794568
pipeline-emsc1-x-osc2-default,0.1055996480374709,13.174107333871154,6.487498268163431,2.382511671664153,7.425416179192791,7.166807825568281,3.700480011174174,4.198127047420416,4.187815404631268,4.408004372081215,99.54102959107615,1.6837324391860566,2.454593430093503,1.9792644904779788,3.881160863454643,1.7308444265274263,2.8023298186854526,9.376244103665394,14.078539599059154,15.838222447560211,0.1743173001127243,0.9174584515993652,20.92821811517543,18.33160834245972,14.977655240300797,1.0879602121183598,0.2610217877993201,0.0373505788038311,1.0420343173860518,0.2062699925038039,7.854831778450661,1.1153978683974004,0.0199506363033274,7786.881505770525,36467.28154811312,0.950380720613066,0.1650234288010465,5.151772799783623,0.1422952685987401,1.4702069432551694,1.4686130526451644,0.2038964746056075,0.2509000526746124,0.3562724164939783,0.2493050202132593,0.3164206216284021,0.2611805300587098,5.248757714615113,8.368675077341992,0.237978010074158,0.1729152183879903,0.066420828051229,1.7656475802303429,5.18989174938799,1503.7562961888175,0.4226881158637858,2.3065584185843337
pipeline-emsc1-x-osc3-compact,0.1058576125447195,13.15769842400726,6.415928234869392,2.379553998504005,7.438293941410398,7.16700641647538,3.6414252378507856,4.200113537783532,4.188110673608827,4.408576203481334,99.57941888650356,1.6703665895104995,2.450828299062205,1.9735086754850992,3.8763619735435983,1.7079850162695611,2.802133640429917,9.376139751123567,14.073688143407614,15.821099027321909,0.174609099760712,0.8107553290064116,20.81321456894176,18.38311777813615,14.960891875297824,1.0880487961389915,0.2584797293694116,0.0372438309694208,1.0420631221996486,0.206259325426648,7.854610012719987,1.1135467457686914,0.0199506390682019,7798.291975489261,36537.91296458369,0.961033372190808,0.1650082407187292,5.151979766660125,0.142490701446475,1.4694101710261516,1.4683355004825724,0.2040152619632226,0.2509000526536756,0.3562548747001046,0.2492322234739911,0.316399566804969,0.2611978317381059,5.250374200769029,8.120076862925112,0.2379829963947331,0.1706372457857991,0.0663740330745649,1.7656634384508691,5.191078376681899,1503.7592305956002,0.4226881158637858,2.3069580145546094
pipeline-emsc1-x-osc3-default,0.1058576125447195,13.153356252069406,6.416003805105509,2.379066146860067,7.4360162008976065,7.167426083809373,3.653894095242601,4.200177774964637,4.188052316840096,4.408340729568581,99.57693727492226,1.677615796070558,2.446875498472272,1.973969280265367,3.8763619735435983,1.726342626724834,2.80232117133108,9.377194905500762,14.076255950899986,15.826755014474475,0.1744264389661035,0.9248300134932176,20.67609845327832,18.42836375669869,14.972003220472944,1.088057988528801,0.2599909166941237,0.0372438503961565,1.0419748804633866,0.2062842397277945,7.854621437037013,1.114154197493438,0.0199506355704092,7794.99147884045,36490.80641207066,0.9528600448694592,0.165011968934835,5.1524749396100455,0.1421641472138346,1.4720793196838329,1.468316350857386,0.2038818125289842,0.2509000526611949,0.3562673277991322,0.2492016152856391,0.3164006092175701,0.2609534145713412,5.24740982838002,8.341188723504565,0.23795257625804,0.1705022370917318,0.0664080299181599,1.765657105815819,5.190210548185165,1503.756296793509,0.4226881158637858,2.3068762249122714
pipeline-emsc1-x-x-compact,0.1051482580764856,13.588717141616575,188.8196743649469,2.3788857040694773,9.990951128830767,7.177588883489356,3.825803700087975,4.170041856290962,7.376828295779773,4.422349358656514,157.32427304046743,1.6941794673286046,2.92457255216656,3.06655724214884,5.092457152865315,1.7080445031122735,7.726826223000508,10.653008799617698,89.02452909624223,40.17209399687463,0.1759306367780601,15.889003146888252,21.07238958619972,18.45127908994367,14.961327147102669,1.074428494138307,0.3261826348561096,0.0497553625213193,1.099556232883869,0.2058379202758898,7.857759702616442,1.19461306539748,0.0209444727351625,7791.3510337201715,37966.28977122751,8.682675911530476,0.1651398748793835,5.15466101238972,0.1422969765904331,1.759556719736526,1.469562213372507,0.2043348038172749,0.2509000526608342,0.3557735223950383,0.2492965321534257,0.4039139036375454,0.2722804146385757,5.354651354709154,26.11352885744414,0.5332862199989837,2.4330335282619395,0.1747111369368143,3.898816953113434,5.160010447335908,1518.7504854544602,0.3829459727356415,2.105421088433956
pipeline-emsc1-x-x-default,0.1028167035250114,13.588717141616575,235.0200033258336,2.4216516316898185,9.459631329260482,7.24164488905404,3.823215275559769,3.793922626879328,7.376828295779773,4.422349358656514,131.59966729964324,1.7143569411682549,2.8269178671208746,2.6147081819571656,5.005452531962838,1.7080445031122735,7.482815877754505,16.207162813951623,89.02452909624223,40.31510297447375,0.1796387716271163,19.696599477378424,21.567020682932583,18.50406069967577,82.57707690184223,1.0922147077691164,0.3272462479748024,0.063816524022438,1.1009292690300456,0.2058379202758898,7.857675000506234,1.1198691792190576,0.0208794327901376,7790.61037027214,37966.28977122751,8.314295834190066,0.1834598918988113,5.152264083762071,0.1407869330747982,1.47811174627981,1.469849517774127,0.2043348038172749,0.2509000526633626,0.3612482265942356,0.2492965321534257,0.4039139036375454,0.3301495719080327,5.266646689532532,36.2682321752425,0.4640682158361689,2.5342580719185737,0.1776910858719793,7.529985232725991,5.160010447335908,1518.7504854544602,0.3829459727356415,2.105421088433956
pipeline-emsc2-asls-osc1-compact,0.1033411425887434,13.227191173375209,6.240120329422021,2.384794705814046,7.359149733418172,7.159162780932468,3.612640063256716,4.187808295204119,4.208220211688652,4.423766834565012,99.49292707574756,1.6243116798045685,2.4409399886073,2.001002276054041,3.93659549513012,1.7455490426846718,2.7968517305376865,9.381980838385564,14.289508204615586,15.64618786654012,0.1736938896754124,0.8374639307297768,15.694510756161804,17.12130441659915,15.003656083489592,1.0800217468744655,0.2864679678215079,0.0372521771107759,1.0418195525503728,0.3303244670019424,7.856569905793381,1.1117916538779515,0.0202980665437986,7745.001548477328,34122.38955258096,0.8652341006226791,0.1654109602112617,5.151172753373179,0.1835611001598606,1.4693912305845536,1.4685227639237266,0.2294382531729749,0.2527109793623903,0.3552273362963123,0.2515345986964741,0.33043260775394,0.2604321908482329,5.210547380084813,6.80358450959687,0.5943357301505856,0.1694983484350253,0.0663628159865173,1.7651088410743128,6.918242769429229,1501.0871735196768,3.091639492882517,15.4133935127508
pipeline-emsc2-asls-osc1-default,0.1033416997939361,13.231964217772326,6.240102342427318,2.383722491906125,7.359891693977625,7.159858594970556,3.612640063256716,4.187808295204119,4.209606784883857,4.424037553551271,99.47893727890929,1.6200400207283174,2.4409524711542367,2.001083369196921,3.93664649792244,1.7395761505236402,2.7968517305376865,9.38014723959849,14.273132042643088,15.646036504840108,0.1736934453946438,0.8346360712018316,15.915634143154271,17.12479363806929,15.003656083489592,1.079053115181799,0.2708539976954589,0.0372844035322168,1.041470291380253,0.3043268343900422,7.856581698472828,1.1121184011834069,0.0217923986065308,7733.948696312698,34129.155277561,0.8652341006226791,0.1647182399829279,5.152553247289913,0.1496385086199917,1.4691275222949105,1.469003892205477,0.2070896703319008,0.2527109793623903,0.3554663187789063,0.2515239336860563,0.33042179808131,0.26039279830573,5.2213939313630044,6.803605083822363,0.5943357301505856,0.1689206190868315,0.066362857430258,1.7638915544800702,6.079669985115356,1500.564108927647,2.835139829189905,13.698564024589382
pipeline-emsc2-asls-osc2-compact,0.1032706382580772,13.22693253182822,6.240145428319,2.382048517954963,7.3583822184213075,7.159061943406463,3.6127781739614666,4.1877969944005695,4.208450150421776,4.425175891814079,99.40347076500252,1.6422228436918849,2.4409466865708938,1.993187260296737,3.9317948915971694,1.7467837175113383,2.797004390526194,9.381566094904857,14.162592565977054,15.66007648047168,0.1737028905650109,0.8531246416059874,15.573673289804614,17.119726714430257,14.997997840136264,1.0791443788216528,0.2869911810733765,0.0372766388879424,1.0421543928262615,0.2201951407194858,7.856797496006001,1.1117662675596096,0.0202270248533611,7734.675508543666,34586.098380750336,0.8714700873637683,0.1661257949879617,5.150228924912352,0.1505731165963942,1.46939164241203,1.4685186135016688,0.2025081056349987,0.2526233888301709,0.3552272919267928,0.2521677862556672,0.3304663378369323,0.2604769696463164,5.220454403071522,6.803391722791018,0.5943397244718732,0.1694991054087077,0.0663626766474304,1.765267971310463,6.437980016224918,1501.2310546302358,3.0916394928825177,8.786355014487825
pipeline-emsc2-asls-osc2-default,0.1041827539866308,13.231510228855896,6.240145428319,2.382479138360619,7.357950179080504,7.159005880463926,3.61284777712657,4.1877969944005695,4.206267865478871,4.425447148250522,99.38944388342848,1.6070493725940784,2.440950617029478,1.994664768171068,3.9301010055204166,1.7415430978890476,2.797004390526194,9.38124034316063,14.158324300008816,15.660604341123634,0.1740355237817587,0.8819782850558059,16.143222573965126,17.12343092319635,14.997997840136264,1.0788499225085155,0.2836799391027553,0.0373248757556344,1.0421763665992525,0.239959085308428,7.856651377954111,1.1140781796167691,0.0202270248533611,7733.901064219816,34129.00678633037,0.866338861307296,0.1664474011339418,5.152513355077919,0.1654324468151201,1.4691333318518187,1.4690188242073017,0.2027106089339964,0.252623445502506,0.3554705497527519,0.2521009140166354,0.3304378950986766,0.2605589406012528,5.218215169536541,6.803393218229114,0.5943278660030612,0.1690477719034209,0.066362367608241,1.7653576986140929,6.499806533033047,1500.721822121027,2.8256454167978435,13.63177254349845
pipeline-emsc2-asls-osc3-compact,0.1032534992290554,13.226939605460228,6.240145428319,2.3803370952198297,7.358196984886193,7.159138257590771,3.612827347224498,4.186108008331146,4.208500716206735,4.425247546934646,99.44576648892414,1.64215599195385,2.4409482414052466,2.0005590621681453,3.936490354466324,1.7467779906812613,2.7974414279223154,9.381980838385564,14.178895061241322,15.657711237728684,0.1738100965598832,0.8557482013966505,15.517397898652828,17.15711097919218,14.98843195752683,1.080076682136211,0.2858946782664663,0.037274480096881,1.0420583712622846,0.2201800826138124,7.858740174906502,1.1136806906220296,0.0213211565698397,7735.214461987714,34845.34936872858,0.8672023901956374,0.1660921115969127,5.150441591230974,0.1505732059012697,1.4696689666435103,1.4683703454595645,0.2025080014401468,0.2526232617839338,0.3552272855028122,0.2516958419891608,0.3304670047240832,0.2604621026271163,5.226096994514529,6.803373604805601,0.5943396089557049,0.1694961300545364,0.066372182451574,1.7652663124291643,6.23689083498391,1500.9613581347398,3.082049770684805,8.852572916872811
pipeline-emsc2-asls-osc3-default,0.1040269500167164,13.230872332742075,6.23950399649801,2.3826785589088004,7.358302215754144,7.159827665949329,3.612827347224498,4.186743188044458,4.206684925580383,4.425462370174409,99.43566567442105,1.6080623737331696,2.4409487046817104,2.000580173843209,3.942496485866729,1.743423410397077,2.798589772678498,9.380461649992291,14.183728491325793,15.659880696300569,0.1740219844521842,0.8970022200537094,15.589390983754765,17.153144137671188,14.98843195752683,1.0801090933553574,0.2843033884707703,0.0373008726913146,1.0421103467935495,0.384143897209154,7.858961530397585,1.1141144971930053,0.0213211565698397,7732.99456416378,34486.546676715385,0.8653709058272034,0.166347001075188,5.150598023952202,0.1659871254255486,1.4696551532108355,1.4689879154178485,0.2025088362202174,0.2526233616694054,0.3554875005262546,0.2512378973396943,0.3312972310875197,0.26045966813798,5.228715345587043,6.803223276962546,0.5943286228872943,0.1689867197466396,0.0663509110929281,1.7653529161133463,6.370915794513956,1501.0968359665976,2.7829487250431963,13.48381634385906
pipeline-emsc2-asls-x-compact,0.1034293102849299,17.594545433251067,6.24012835311757,2.8485064179003965,9.589211180019076,7.753452780816869,5.904070833136712,4.183484867344868,4.02446207531808,8.14543018808477,103.79616980636574,1.6022101589826008,2.4409689929637666,6.606098740509493,15.045645778822774,3.7986430058932976,2.798128160328743,9.397380411858274,18.027070964475485,67.42314142870539,0.3296749665496588,3.2502343470791533,15.82637254558256,17.138830653841634,30.32840045415508,1.0629499849124753,0.5859036663593787,0.0469743814019152,1.042193694925834,3.2455354865970216,7.857010936895609,1.111582683718617,0.0210496181990373,7739.83387098158,36361.132080303854,1.5818620473082488,0.4091136095717789,5.162335294290607,1.0630693096905508,1.9634012312747264,1.5097039083492096,0.2277803699502912,0.1791977158522136,0.4009117059557155,0.2618406899143031,5.6764697083992255,0.4964347415345183,5.997357528765318,7.528085812590518,0.5943316827717606,0.1694576332895708,0.1237568540960663,1.7651453298209814,20.75632990100191,1501.324489984534,3.6736084390877104,33.45785979193646
pipeline-emsc2-asls-x-default,0.1041177058877333,14.685076697738207,6.240119594559868,3.791646990135608,13.34069708680043,19.40796507654706,5.8674301201558405,4.636156457140058,3.978461466053953,12.788999228713404,100.26426781236742,1.6008148347813569,2.4407471518211685,10.103127073614797,16.669720403209407,3.6523056657410247,2.883624383259742,17.950758928127176,18.027070964475485,88.98832200787561,0.2202233488358528,3.8808364640592505,16.187658981268417,17.258594537828667,55.24881896195791,1.0201334537923663,0.5859036663593787,0.2092139227851836,1.047867394937245,1.7694501582046285,7.856890270741333,1.1116372311391214,0.0659599778528955,7733.638668299348,38442.8622729736,1.919253323083516,0.2313575243156048,5.162335294290607,5.571359092775888,1.9634012312747264,1.4998660992928712,2.7918348098585555,0.1709665581663553,0.3827547084690493,0.2618406899143031,4.162275396660358,0.3912550213507407,5.818810297769134,6.766160560529673,0.7055551865944455,0.168895436490336,0.1412775394658846,1.7628840782631836,5.434375536998105,11775.951617517972,0.4147455350151742,30.16124038200467
pipeline-emsc2-x-osc1-compact,0.1059674829602085,13.222870812828113,6.237106977051414,2.387062010122305,7.359322616768924,7.166530044962727,3.608029012239142,4.1941575604980255,4.166747502361024,4.424842387520383,99.43477930807256,1.5988616084225502,2.4409698097376,2.002737950419976,3.887249308561596,1.7441928430280516,2.79978431871136,9.399871705480091,14.22409857962464,15.64388929565934,0.1737308604515726,0.7860225156980726,15.968351859786134,17.139392549561393,15.000386213658324,1.0793474095662896,0.2787446094618862,0.0372303332258083,1.0414982030141908,0.3775181965750423,7.858444163309734,1.1133281813207865,0.0230883243155917,7745.545597288747,33843.39952809566,0.8475056628079195,0.1691518628714856,5.144023121424149,0.1881984156859561,1.4698462865999011,1.468650613138129,0.2371885467064653,0.2513122528299031,0.3552583660239575,0.2489561790185711,0.3203317683883604,0.2607350758726178,5.256100947749421,6.803729841269241,0.470456880478223,0.1694030045547284,0.0663544938682619,1.7655838217262678,6.04694529374921,1501.6727226755238,2.6141909732914765,11.616063475486744
pipeline-emsc2-x-osc1-default,0.1059674829602085,13.222870812828113,6.237043761979284,2.3882335284797165,7.359382884400388,7.163838421086962,3.608099175031243,4.194783880050535,4.1662794046224585,4.424842387520383,99.39851790667151,1.5991350092893208,2.440872108679818,2.002737950419976,3.887229501789754,1.7441928430280516,2.7998359638292047,9.39270741284326,14.22764405812644,15.643869350004977,0.1737301655869948,0.7922514996879102,15.911837963557517,17.143624566126533,15.000373913683683,1.0784237900671525,0.2782744081419142,0.0372282782870256,1.0413134593535842,0.3918006313018885,7.858443222988524,1.1133281813207865,0.0230600329173663,7745.545597288747,33834.3889400839,0.8469637876770723,0.1686062269998674,5.144683407742848,0.1876969369755176,1.469644985470317,1.4688258794695,0.233724028901292,0.2513122524274131,0.3554689783320816,0.2489370368119005,0.3178748111979338,0.2612024669357361,5.25365693544236,6.80374055800283,0.4969306171260514,0.1694030045547284,0.0663528608449998,1.768603763459566,6.183564697947667,1501.0874822764374,2.6141909732914765,11.64808650546902
pipeline-emsc2-x-osc2-compact,0.1059650775691923,13.22252639149296,6.236935792129908,2.3874468859193274,7.35923560137896,7.165004207815187,3.607460592889928,4.190514059538469,4.177923376894645,4.424875210622773,99.4133524390782,1.598840622746035,2.44090178870816,2.00369202521176,3.8870195282419058,1.7440838787993436,2.799515574994153,9.426857092595617,14.232902761733271,15.643769167451698,0.1737310212842047,0.7840373562685611,15.757570215639598,17.14367648938028,14.992235484711216,1.080301292854505,0.2849266357533501,0.0372777823337058,1.0415112229854386,0.3798949625277379,7.858443966276687,1.1133281813207865,0.022941330712762,7741.616141867036,33809.7071150014,0.8466893344184893,0.169125581458691,5.144062233573798,0.1877958694770091,1.4698458347725758,1.4686542134779086,0.2376737388526821,0.2513122527985423,0.3552306902493297,0.249724351325135,0.3161965095903079,0.262224737877877,5.254999643718183,6.803741719104837,0.4736924494895243,0.16946639023169,0.0663546864344646,1.7657483420886335,6.07897030448973,1502.4633565033398,0.6024960684844497,11.535367256998004
pipeline-emsc2-x-osc2-default,0.1056278896920536,13.22254086532882,6.236611540005248,2.387442593829941,7.359228711419521,7.164028424681271,3.607156546136629,4.190215146929315,4.189668286705814,4.424875210622773,99.41244752922854,1.59910534034708,2.4408732545317244,2.003455531263937,3.8866874415263952,1.7440838787993436,2.7995183083713338,9.39192769452622,14.232902761733271,15.643838669526223,0.1737303745395509,0.793136875534417,15.836361903341055,17.142855696020575,14.992235484711216,1.080276666082083,0.2849266357533501,0.0373201861530704,1.0413447920220424,0.3930491710840244,7.858442914286352,1.1133281813207865,0.022869605587299,7741.664930944977,33777.14986098253,0.8468118822102272,0.168541560324838,5.144025583250539,0.1865286340651379,1.469643008064112,1.4688178287636695,0.2368699585104037,0.2513122528050854,0.3554500393720731,0.249724351325135,0.3504280100791647,0.2617275490918569,5.2534404237442205,6.803741527674289,0.4933418408018627,0.169105206135086,0.0663533375683357,1.7681469958159917,5.921289573829567,1502.4736422605845,1.819167887448392,7.671987044066631
pipeline-emsc2-x-osc3-compact,0.1060227579392715,13.222525732893448,6.236840038659721,2.387779791929116,7.359286235891356,7.164558369040375,3.6070111408798775,4.190571117522467,4.177691733063496,4.424874834754539,99.43029305355957,1.6003182574635302,2.440889424229461,2.0039560754863697,3.8870291635017504,1.738299206147108,2.799516722226357,9.426354469068071,14.22019274867232,15.643855398187778,0.1737311953474877,0.7676350980817218,15.857218581140591,17.13893745338955,14.982454248049342,1.08032737804337,0.2847357104215773,0.0372776313670383,1.0413731176580363,0.386060693910812,7.85906537314808,1.1126093189648856,0.0224293704325359,7745.628964336895,33820.79533037868,0.8468770598639088,0.1689232481839496,5.144196418285442,0.1884514394778442,1.4697444043395649,1.46865419505574,0.2365131140066056,0.2513122527982577,0.3552306790029177,0.2500902801137772,0.3389554277027817,0.2614513656372349,5.255318676703188,6.803744751101961,0.4689283635468864,0.1694575759277773,0.0663546723946063,1.7657197361906174,6.074372829984868,1502.4456664131023,0.6029262035941659,11.524701493908294
pipeline-emsc2-x-osc3-default,0.1060227579392715,13.222527769695697,6.236839116767024,2.387999779529231,7.35925282477593,7.163815941726903,3.606701752630604,4.190261247904106,4.171243372431698,4.424874834754539,99.43020921956186,1.599086466885701,2.440860317492671,2.0040550664163685,3.886740664717137,1.737175333059176,2.7995187979469365,9.391749625249496,14.221604390613477,15.643783836323522,0.1737306330652483,0.7711970128454694,16.26516794585217,17.13745966068721,14.982376754639922,1.0803046567919878,0.2847357104215773,0.0373293168014719,1.0419572443796328,0.4039485429321707,7.859249741858462,1.1124943339201672,0.022381958087995,7746.553907343363,33794.50809699978,0.8468019582018993,0.1690605248915619,5.144180995353483,0.1868404079090601,1.4698567647613503,1.4688143309244392,0.2385708098340717,0.2513122528160692,0.3554508309292356,0.2494764433306854,0.3390074273529386,0.2609031106369484,5.254385856964597,6.803744682162576,0.4894943566248548,0.169488579729622,0.0663529791565899,1.7663625508420635,5.906787168688032,1502.458196168748,0.6029262035941659,7.657738805666879
pipeline-emsc2-x-x-compact,0.1061208759833986,14.23021462669833,6.227454823940769,2.4026858350470937,21.65600972380621,10.560783383552169,3.347000967804583,4.5760258721942,4.054051042106964,12.25625147423679,102.99687280467184,1.6023469437951416,2.4408917216477266,6.349249364017432,8.609230071726108,3.529316775019644,2.799804883789295,9.4047397168725,14.656627824328655,86.54260034789384,0.2032614588223008,4.502117996765321,16.0463589186763,17.14054456145918,48.53471558410246,0.9779400630234962,1.9133109395752896,0.0392855321366883,1.0541274889781862,0.3350296065232781,7.861596834746681,1.1228964430408972,0.0228040888762267,7746.491905579741,36126.39204002257,1.5107909529495172,0.6339089672598296,5.161700786586209,0.2927875325473975,1.8962386874385115,2.042913568198065,1.150908049021684,0.2513122528382573,0.3817947650100113,0.2482202465903902,0.3216601248007647,0.6738667008075189,5.749997953729019,9.815787647852783,0.5033612179967893,0.1693958512836105,0.1331791900876839,1.7641454618215828,9.267129760045387,11381.251118785109,2.443678277980477,2.808828421515134
pipeline-emsc2-x-x-default,0.1061208759833986,15.239590428065428,6.227454823940769,2.412463403484774,21.65600972380621,10.499665912304604,4.245524670223522,4.633289153599073,4.0550968036210575,11.821618725800558,102.99687280467184,1.600687666888286,2.440870888075982,5.546228638159811,41.75136918590855,4.591564580029513,2.799815038238465,9.390697638773096,14.656627824328655,61.47033187125693,0.2034446691466399,3.498543782959408,16.009706206392053,17.145370227062052,48.35825226540387,0.9863635127114484,2.305964583528106,0.0404490860787002,1.0540559918351566,0.679808019233872,7.86074468389099,1.1064720384704865,0.0340741416811946,7745.767993933021,34213.73116095863,1.5107909529495172,0.8339857083235153,5.1600046864352205,4.027944925164557,1.8962386874385115,2.188103149384205,0.2075992796955045,0.2513122523596925,0.3817947650100113,0.2481944454795864,4.886350110876058,0.4898584509719031,6.029526004586852,9.850452426589628,0.5020294183617815,0.1693958512836105,0.1440540847082213,1.7666086073943528,9.267129760045387,8928.093715046743,2.443678277980477,2.808828421515134
pipeline-msc-asls-osc1-compact,0.1003900056800647,11.643593751691856,3.802340556479817,1.6163178109289214,5.3388645352987245,3.83993095784914,3.446265601680369,4.225718939299137,4.189660527706145,4.368948941435741,98.93627154695724,0.5369306055413839,0.7472693970298111,1.6366301044920963,4.068950700291943,1.8238844520439264,2.320773439694117,9.457041390901344,15.04938418328236,16.63069541608793,0.1388107735918304,0.6963350791832288,14.355329218927654,17.123195133399175,14.573968303792585,1.0562188296985708,0.300639042253031,0.033496591366134,0.7753745653471171,0.1584735025662425,7.441633139110487,0.8047393582626352,0.0196480295301131,8773.971657301485,33938.768329835795,0.3384255669577644,0.1611451886822458,5.174248219401552,0.1087916492975388,1.3752551831531716,1.3739502004222646,0.1624902601337224,0.0777310319769032,0.3711769914604069,0.441419324277662,0.3439194923737075,0.2475930657795748,5.339425864020404,6.277558033267048,0.2158199811031439,0.1549117233546771,0.0638587445015736,1.7863770965138772,5.313671029598541,1485.262063284537,0.5034553181550093,2.5290553676560235
pipeline-msc-asls-osc1-default,0.0996027623275169,11.643593751691856,3.802340556479817,1.6200158710353347,5.304199466175703,3.842864987246135,3.5103341112791524,4.1587389480965165,4.193776906149387,4.374873493591402,98.96698705361707,0.3568847124101022,0.6060807094269768,1.5385447860352277,8.226944967898822,1.8238844520439264,2.320773439694117,9.325891939844592,15.04938418328236,14.019228997409694,0.1388107735918304,0.7103241718498644,14.351661530319594,17.28824439945473,14.571819272844929,1.047958446819105,0.300639042253031,0.033421420043978,0.7753745653471171,0.1584811589876198,7.442201045527837,0.8047393582626352,0.0196242464961978,8741.351207790172,33938.91721195661,0.3390221542854583,0.1611488253602937,5.174333631300671,0.1056922348852617,1.3767616321071698,1.3768862353969349,0.1735314162654077,0.0777174044912333,0.3740149804098527,0.441419324277662,0.3421652888599092,0.2580118891067393,5.322160461168238,6.556852249350424,0.1979847607561064,0.1564778109695301,0.0619322831809912,1.808544374645512,5.3135438515197535,1485.3138732145387,0.5033110933664595,2.5135559023554017
pipeline-msc-asls-osc2-compact,0.1002457226069112,11.465910756102785,3.796555811221926,1.6202103407845154,5.301358076481529,3.840612594036688,3.425062775928198,4.221007542082692,4.213214197959093,4.376208399312073,98.24982720371534,0.5413810535415026,0.7481706174395252,1.59433974464388,3.886446630385042,1.8192734742932828,2.320773439694117,11.98695217972065,14.772396347397994,16.293807057897187,0.1396863640017418,0.6865287406469596,14.358209814472255,17.119862183202933,14.57656438006812,0.946917576729555,0.3232298524645688,0.0334986253796249,0.7738868520813694,0.1584736566240078,7.441187016565841,0.8047393582626368,0.0194548850590949,8705.28461910947,33912.56691314091,0.3345402124237246,0.1611523964830575,5.173635323359466,0.1082054442802616,1.375502468521839,1.3738229863952411,0.1607164309602375,0.0780045265115712,0.370023088407241,0.4414918112460873,0.3421873118751591,0.2475906456218318,5.339215279150944,6.308483656470977,0.2051909565960464,0.1550466351569628,0.0610757721819818,1.7687394950823232,5.313851004520273,1485.5247703417178,0.5035209355408296,2.4989213893207154
pipeline-msc-asls-osc2-default,0.1012051497765477,11.43299963262757,3.794497879164473,1.6201961448473658,5.305871308210527,3.8436222017850974,3.5123659768173487,4.118886815031206,4.202330757858741,4.386052662605983,98.45835179582184,0.3484682268119437,0.6066394028460228,1.5103250741329104,4.638962690601394,1.8192734742932828,2.320773439694117,12.349133840832383,14.772396347397994,14.817558252143792,0.1396863640017418,0.6896197402021781,14.351187542345578,17.254925748185364,14.55258713442447,0.924582967735602,0.3090901805433791,0.0334288509085268,0.7738868520813694,0.1584736566240078,7.4415008072223,0.8047393582626368,0.0194466050935026,8661.825026476254,33913.06099152897,0.3519297818234129,0.1611571376387491,5.172035958257176,0.108457919633297,1.3753918401244345,1.378058457497295,0.1754317203680672,0.078037717424327,0.3721787983040591,0.4414918112460873,0.3422104194255273,0.2475873228129241,5.321249079189404,6.527672545817845,0.1987485547076902,0.1583185948832062,0.0635814198632785,1.7729916087829145,5.313677674400037,1485.622075214388,0.5034329936770031,2.4989213893207154
pipeline-msc-asls-osc3-compact,0.1002479120052608,11.801858433259058,3.815823270447392,1.6206597951288986,5.350332304375571,3.8402634868499854,3.434558179802947,4.226676699433114,4.213437019886462,4.324932953947704,98.96094762966264,0.5489530090985727,0.7466261776193742,1.9792144693821287,3.968308571102351,1.8199938361818329,2.322364122031001,12.27427669530404,14.52495157544642,16.454992987651536,0.1379891835266625,0.7682997726972408,14.360563390959085,17.118150953635066,14.57858304661184,0.9707216794296823,0.3061354839493614,0.0335214575291489,0.7749801946030128,0.1584737967143094,7.4214766962619585,0.8047393582626359,0.0194567887973602,8870.027556859091,33917.75130255104,0.3346230021677381,0.1611779995737518,5.173916825372207,0.1087916627700181,1.3752765028759135,1.373868950093739,0.1501999396434524,0.0779943055876757,0.3723549784777354,0.4414918112460874,0.3384899282217514,0.2475938782932214,5.338752871154827,6.434168159176199,0.2045405005545392,0.1550471879392695,0.0609038797369094,1.768431832486539,5.313873040108908,1485.5948123305895,0.5036235997594863,2.4985936473611234
pipeline-msc-asls-osc3-default,0.101266712744331,11.801858433259058,3.823329406173829,1.6203347649331934,5.310535057551227,3.8427094289523778,3.469825793918022,4.23255255191421,4.202492990504651,4.354984643407243,98.95813725369564,0.3847662007135767,0.7210807010441721,1.7605935347248294,4.626120158183635,1.8199938361818329,2.322364122031001,13.25617318203724,14.52495157544642,14.213861280996392,0.141358140730927,0.7691544616400019,14.358473474065072,17.235100940511494,14.582073462842182,0.9558733087606792,0.3061354839493614,0.0334998414394582,0.7749801946030128,0.1640618557950403,7.4214766962619585,0.8047393582626359,0.0194251937564565,8898.836632155086,33944.53863940645,0.3383274301365825,0.1611736400631954,5.17288882822711,0.1087916627700181,1.3750724648767525,1.3824228434920185,0.1501936049284828,0.078040284603643,0.371695822711689,0.4465935630229293,0.3374129212540835,0.2475927430468673,5.310430085177892,6.433019863176226,0.1982188269808285,0.1579047780359176,0.0611380223082658,1.742519108976896,5.313267115353996,1485.6972402615345,0.5035973906679754,2.4985936473611234
pipeline-msc-asls-x-compact,0.0660214500043177,8.76820859685158,2.8162466266572626,0.7990642232549636,2.6451741576194805,1.8926739755202568,3.665864604707741,3.8209000862514144,4.391254579662838,5.125197696480809,72.71437590575553,0.2648110197024154,0.4292716395983362,0.6533170635489013,3.3395986364906487,1.974857375950203,3.678846659896039,72.24948680839393,77.30813267957382,59.36459727003076,0.0612291078357092,0.1338709165169422,3.100221625724056,3.0106413249415698,2.987420131120605,0.4023855007630285,0.2137670372654445,0.0321870097702828,0.3030997913684949,0.1661075757014054,5.577393734640917,0.4076566601557876,0.0202523256937148,8088.07434834148,36842.61074204297,0.0780664001654266,0.0585355711339671,4.19000525555967,0.1050079970573127,0.2913839365441691,0.2745037978925959,0.1868080706575958,0.0192345649935991,0.2495110594550102,0.4939709951883981,0.2565032053508249,0.1943262126089434,2.3144186168286467,3.290819039872676,0.3556993987962687,0.1291117415088266,0.0597769727728687,1.9682561159555725,4.796602424880428,956.8650150433808,0.7244480691628693,3.3910614994770456
pipeline-msc-asls-x-default,0.0636574928422162,8.210727714192345,2.528267521471136,0.8102227911775024,2.9429940843635896,2.041978890340388,3.81191567328879,4.553376135764134,4.354260106573418,5.39642494375633,71.86688806177632,0.2646952374390967,0.2646101057635129,0.669365828795984,3.355873763620105,1.874842949463491,3.2322362207636224,69.71417947702108,56.60401162799446,71.57775673804292,0.0680094153277664,0.151882720281288,2.945651849112764,3.414629825866914,3.11739018367996,0.3636030908455606,0.322490407767431,0.0320148534587084,0.3058027313990327,0.1645107141212148,5.426743470708338,0.4121448724827837,0.0202709695977671,8088.074348341477,36314.3893680426,0.0789760639326841,0.0561080136511315,4.276706616848528,0.1358171894141685,0.2935807952540414,0.2759894974372605,0.2122506205568756,0.0177248251525246,0.2495110594550102,0.4922477499723214,0.2657473285775653,0.1943262126089434,2.0851054009033225,3.7623059900851263,0.3451889071424801,0.1330892134445211,0.0502270158784303,2.091841677896118,4.460336646806945,999.0999920067956,0.5918174662367669,3.2324586823568446
pipeline-msc-x-osc1-compact,0.0982974906764581,10.036592565212215,4.309795265836073,1.5112469601552987,4.94789546306251,4.288675874687042,3.402547570446142,4.246005623641357,4.192761844120345,4.382060032230802,97.93544360168411,0.2516342243186002,0.3151602475335892,2.1384442291878445,5.341369445943347,1.8375408976351213,2.305319370345708,8.816424080728046,15.239572748158803,16.210512300622767,0.1551333644338192,0.7441193819917098,14.06865264419025,16.82070230825655,14.37554273786258,1.0534941658794577,0.3589506287604805,0.0333147198368621,0.5598292140117908,0.1618972192983608,7.271448852820086,1.060845082731568,0.0195668888826442,7830.692863592368,33968.87853502918,0.3350908174998234,0.1608399287569814,5.176731302301286,0.1136832529840929,1.3616861740632222,1.3601622077562854,0.1558907742511546,0.0798845013910426,0.3628148885857526,0.4526337220238584,0.2627558837459788,0.2470842366981111,5.3315623907871545,6.621403779449227,0.2211533777956776,0.1554962823981415,0.0623928093280116,1.837410468782328,5.352747105907854,1463.395407536855,0.4494173877517946,2.4044069390948613
pipeline-msc-x-osc1-default,0.0982974906764581,10.01367419885924,4.311361456367501,1.5111907654591004,4.946672148565634,4.290787212829775,3.422761049157644,4.22177439352747,4.192761844120345,4.318544280083809,96.7671557605834,0.2570721168069594,0.295368094496086,2.00169667735781,7.195042150836481,1.837555980681916,2.305319370345708,8.820298206241507,15.239572748158803,15.353548449108644,0.1551333644338192,0.7441785395640149,14.054431004885348,17.179876212465864,14.354581975853089,1.0622682375101684,0.3589506287604805,0.0331744016392153,0.5598292140117908,0.1618972192983608,7.271448852820086,1.060845082731568,0.0195134462647467,7795.733316309606,34007.50067857995,0.3394134764743037,0.1608411107018747,5.176754680295732,0.1136832529840929,1.3616861740632222,1.3601622077562854,0.1531190014958454,0.0798845013910426,0.3715688927992192,0.4239819644257073,0.2582079739670047,0.248545936139721,5.337088657774952,6.621628884985283,0.2211533777956776,0.1541033195366197,0.0631984234813605,1.8409262806478344,5.347935786158623,1463.5864530366143,0.4494036673993353,2.4043369233396
pipeline-msc-x-osc2-compact,0.0981593024139442,10.036995952410496,4.313517956442467,1.5111252953420098,4.949312894188084,4.287099987164727,3.3909034125485205,4.249122144249329,4.192566648970598,4.441029218476008,96.684280569095,0.248606348665278,0.3121473130772869,2.159356384049512,4.468408693646009,1.8374869072183333,2.2882596052957904,8.824697595011962,13.969963593403508,15.250242296494047,0.1694083439607509,0.7513347866901027,14.069010420810445,16.818921888065788,14.38158853321881,0.9493902821264308,0.3589506287604804,0.0333987341067511,0.5598292140117909,0.1620793591339539,7.240618619698728,1.0612359200783972,0.0196593455873651,7833.526034693902,33943.79457715368,0.3397689667145951,0.1608268629691536,5.175475151302385,0.115391040840764,1.361169266496779,1.360695550274558,0.1579701198953459,0.0798845004519034,0.3591113292654918,0.4378559562508758,0.2626118111371753,0.2476322042680121,5.369459982248337,6.604656934038631,0.2223309496603175,0.1554744459540016,0.0609194807323224,1.813609161227278,5.352819358203508,1464.261396903314,0.4494295371369196,2.4046262992903524
pipeline-msc-x-osc2-default,0.0981593024139442,10.02981694895369,4.301740932207497,1.510957067370193,4.949249365212321,4.287099987164727,3.400311793196515,4.189047400249845,4.192566648970598,4.437272588702252,96.68777796931757,0.2571913649090565,0.3022793835020914,2.0246862652119217,4.463196175378579,1.8374923632979303,2.286674733758931,8.835973785493042,13.988642344846005,15.040509018805423,0.1696841745028631,0.7438593101659337,14.052797532053551,17.17351516395311,14.363227196548255,0.931668858734491,0.3595544713236416,0.0331951348706994,0.5598292140117909,0.1620793591339539,7.240618619698728,1.0612359200783972,0.0196946286917877,7801.336465114307,33928.16134732926,0.3545062179610622,0.1608380166296689,5.170934225700713,0.1153857218587976,1.361169266496779,1.3624771619553806,0.1616037060161844,0.0798845004519034,0.3539464179998039,0.4101201897649754,0.2549861723385946,0.2476322042680121,5.368848708464804,6.604957294373925,0.2223309496603175,0.1546874438008419,0.0610316456414566,1.816289058498309,5.352816057134013,1464.659089759918,0.4494186972018892,2.404471120462171
pipeline-msc-x-osc3-compact,0.0981529778580908,10.03564676691254,4.340272648286958,1.496857854986336,4.929517794435596,4.293239062862286,3.397671427546707,4.257797731191518,4.192759517374285,4.444513394511563,96.53693980974572,0.2481103272937216,0.3091259701206312,1.9742014186594912,4.468360339303281,1.837306154644457,2.28779950860091,8.921083683384685,13.951962642419916,15.313474483326663,0.1693418887959941,0.7514211086427334,14.075666732098686,16.8183824635942,14.37486725708558,0.9679792062012889,0.3463422366370871,0.0330496460449314,0.5611717733552315,0.1695738702056894,7.240692414620144,1.0580220160858722,0.0196339433898388,7853.696439298396,33932.15303178947,0.3341174683007399,0.160832322009419,5.17616799260517,0.1182014925029796,1.36054250251535,1.3595393477969222,0.156320774298158,0.0798845003646017,0.3609543189403456,0.4247817406686967,0.262670690913158,0.2460075107871294,5.3826864760009805,6.604769723352694,0.2328506075179318,0.1552895406282093,0.0609039014736889,1.809079033219397,5.3528015001435385,1464.2692803406017,0.4494308388953627,2.404496068866665
pipeline-msc-x-osc3-default,0.0981529778580908,10.029208619148404,4.370776141897506,1.496857854986336,4.929517794435596,4.292880883228591,3.4116843441860607,4.268208192659046,4.192759517374285,4.441081040993416,96.56157670648722,0.2579010477590494,0.3311988846014684,1.931308121968036,4.463123862209468,1.8371916931968104,2.28779950860091,8.860678620260384,14.019408214443798,15.36619240719045,0.1695646148434186,0.7520763412353336,14.07873300645064,17.11038091653273,14.373329138912723,0.960325970995103,0.3463422366370881,0.0327295766335821,0.5611717733552315,0.1695549848577163,7.240750871879017,1.0580220160858722,0.0195982946334654,7789.412697596045,33914.92721706697,0.3434001871633096,0.1608390392845161,5.175378010009674,0.1181915014126416,1.3624007041097888,1.3599624118176414,0.1588419067342568,0.0798845003646017,0.3609543189403455,0.4112642150278346,0.2727457353678099,0.2468455678064431,5.384792125155653,6.605071927664429,0.2145665402619447,0.1546067967033512,0.0610309698649176,1.8078914766167429,5.352783330756978,1464.644519577971,0.4494191389538778,2.40446023451322
pipeline-msc-x-x-compact,0.0646651738960257,8.276805103282088,2.707969454559082,0.7483479961893034,2.789235205520499,1.8529775543800384,3.684156779849176,4.124349098180924,4.50711304954593,5.06694765092494,72.5824907335787,0.201453390297095,0.266800677100485,0.8781600977777931,3.1611699829648874,1.7591400699294957,3.437845521790449,70.28121310231462,72.58398462073671,71.02386380653773,0.0534434337420358,0.1375181675961425,3.098618243967272,2.915844331722224,2.9855792580564,0.3961313609099784,0.3136681814427359,0.0340037137304644,0.3096056287973204,0.1726661382002968,5.051067148156326,0.3890829242977446,0.0189163724938811,8472.680379034544,34904.14377060782,0.0806139841995143,0.0593287345566036,4.220471563882716,0.1237908309996681,0.2854161915625445,0.2628863264775327,0.1914528120238378,0.0875721153840137,0.2369963834970944,0.4685332661559325,0.2800812476046836,0.1825720314770105,2.4079701964945013,3.912322907557317,0.3737541311231624,0.130449339282713,0.0521218124126748,2.1094886015892818,5.055552310636436,966.3917578728004,0.7419331381849696,2.7321205920219227
pipeline-msc-x-x-default,0.0765308426858228,7.84251411814111,2.7079538359284743,0.7508654194026074,3.086741578166765,2.0337964875600725,3.87257024453236,4.553693285090473,4.336725762487005,5.407312570812179,72.57166076176922,0.2281897972475322,0.2326972760278008,0.9071242544527776,3.0187916830058508,1.7591400699294983,3.145695886995095,70.28121310231462,54.989719407106186,71.02386380653773,0.0534434337420358,0.1543515769567561,3.094094716549574,3.742939266211229,3.323640260276154,0.3627177039682497,0.3828203753822024,0.0323576017569861,0.3102939539038506,0.1726661382002956,5.178527502905829,0.3962913672482179,0.0216674589865411,8472.680379034535,34150.46987648045,0.0795029794729527,0.0560960597112178,4.25948638992065,0.1187888737541651,0.2889384631098276,0.2720205789380152,0.2010137498435187,0.0875721153860164,0.2586398987289565,0.4336347671109747,0.2376193580405404,0.1929546834354194,1.903041063728724,3.7403191148204464,0.3737940884291175,0.1315249091366835,0.0500025180834914,1.9842425650677205,4.381753306810958,949.605246503676,0.3922283368889769,1.97814642020762
pipeline-snv-asls-osc1-compact,0.1005825430739579,12.19403255362172,3.420749617209039,1.5140966741552695,5.280225228214376,3.122737167349407,3.444196144977448,4.226326114045249,4.18971048557739,4.3688084794788375,98.57946072418504,0.5366129229425035,0.7468309681203096,1.6382496502913495,4.054110572466663,1.8235153246896327,2.351096384120208,43.61284761096458,24.99398278028922,27.56149176415464,0.1384030639917483,0.6962163671648167,14.353893895910169,17.145726005240697,14.577560099383176,1.0436462886006153,0.3000247863536942,0.0334719857774536,0.7764362939310304,0.1551236842539867,7.362027340310095,0.8047712710219325,0.0196566452351399,8268.18435329087,33991.813728274115,0.3363444926584182,0.1611182090334496,5.174403041054435,0.1059571273918206,1.3602985374090064,1.358790204944588,0.162894051250458,0.0659759591939335,0.3714968571410567,0.4429359021138213,0.3431364128956453,0.2472018887033862,5.3401408733259,6.274634293706842,0.2164410660100784,0.1548796268952653,0.0637552136124627,1.786471640040897,5.299050705649638,1485.7468035146885,0.4454731209632459,2.407992047966193
pipeline-snv-asls-osc1-default,0.1018313356042139,12.19403255362172,3.437216912021998,1.5206735367796955,5.252273992404424,3.1247561679492097,3.512354138103946,4.1594753369311785,4.1923672460268,4.374853566395693,98.67856999397662,0.3570149167247062,0.6057139496459436,1.5336380503243314,8.196947657457208,1.8235153246896327,2.351096384120208,37.14083628968148,28.861659214537223,27.143282120053247,0.1384030639917483,0.7066440992179058,14.358378155511105,17.328890541434863,14.569438815157811,1.034869809127994,0.3000247863536942,0.0333964765503685,0.7764362939310304,0.1551285625392652,7.362027340310095,0.8047712710219325,0.0196331690051108,8255.325368671016,33992.4506330794,0.3398962253068486,0.1611221988616125,5.17448111624057,0.1045724814482672,1.3617161460385356,1.3593725799802934,0.1746840917538539,0.0656234935360398,0.3746011280906666,0.4211976526330476,0.3412416831653285,0.2580951638846651,5.323327286934755,6.520155747409854,0.2008318176854621,0.1567588180522727,0.0636518518059595,1.8085769615428493,5.299573787823932,1485.803052392882,0.4454503351764091,2.407992047966193
pipeline-snv-asls-osc2-compact,0.1004744042207549,12.211080367808004,3.4221529586800683,1.5246784755762162,5.194178937023852,3.1236980287780143,3.421915331758876,4.221835972897209,4.2133565024635455,4.375568271678231,97.8969565074127,0.5410232473089602,0.7477321911983166,1.5934625646802565,3.890194629490488,1.81882483128778,2.351096384120208,37.27611202858504,23.0729800237372,28.74284301337147,0.1392070272001666,0.6855979402509246,14.351647059763875,17.1410758277993,14.575363593607989,0.935810456795949,0.3221586457978248,0.0334738045471902,0.7745620951164611,0.1551238499420047,7.368828708327207,0.8047712710219349,0.0193762057310869,8222.154646469615,33925.05134990184,0.3333435735761439,0.1611510376398549,5.173676530490167,0.1073189611307797,1.3621169433393896,1.3585950647086378,0.1609983450477548,0.0669108827308763,0.3703683173345102,0.4430130821865728,0.3416019854560843,0.2471995348573938,5.339985149834916,6.389681084491367,0.2068515870568998,0.1550418564785827,0.0613644872795506,1.7687807344456028,5.29858097936368,1486.0082736956442,0.4454712132602926,2.4079920479661934
pipeline-snv-asls-osc2-default,0.1017128414225141,12.211080367808004,3.4453198340912765,1.524588404534727,5.193147334519556,3.126015367752313,3.5143374299921346,4.120167771559439,4.202464168199641,4.385574463544698,98.1170368106455,0.3487276739631361,0.6062830536156057,1.5116516540908855,4.587580947187395,1.81882483128778,2.351096384120208,36.75858874282204,23.46022319324684,28.369139013116133,0.1392070272001666,0.6883282649178881,14.34344120093698,17.282963081836478,14.545483316899508,0.9134391848481056,0.3084775915324754,0.0334043119542316,0.7745620951164611,0.1551290940299515,7.368828708327207,0.8047712710219349,0.0194459432638807,8209.558856966223,33925.25194891001,0.3516265012570808,0.1611303190009272,5.17225089458564,0.1052798420512856,1.3598291603400294,1.3630413482440198,0.1763653622931283,0.0671447983708644,0.3726403000627283,0.4353467582957164,0.3413236075173398,0.2471959540441118,5.322585720174835,6.49675914729933,0.2011835860055558,0.1584691889192446,0.0634684183871151,1.7731501480655896,5.297514523606435,1486.1102428876536,0.445051182144113,2.4079920479661934
pipeline-snv-asls-osc3-compact,0.1004813736425846,12.26796917429779,3.455745893598352,1.524519330632729,5.173446095273111,3.123645549104733,3.4335536110552045,4.227213941344783,4.213602215096572,4.324415312389364,98.74169528186808,0.5485900848886652,0.7462271103344279,1.9971132649183152,3.9679802216151625,1.819514641983106,2.352622727739252,38.36390935742953,23.7767790209154,29.52983281696509,0.137309529005664,0.7667928422286681,14.355608225389224,17.13778007316941,14.578743445748923,0.9599728876922944,0.3055243586260102,0.0334948385293222,0.7754094473505875,0.1551239652108558,7.36584195677784,0.8047712710219326,0.0194477699142704,8274.909422583354,33920.399187684496,0.3334244026954026,0.1611423152209696,5.17407334325226,0.1059571225458746,1.3589496526963794,1.3588163721954571,0.1494594055747689,0.0669178659547468,0.3730138174020031,0.443013082186573,0.3379194718352838,0.247203102309557,5.339657739371414,6.372367473245718,0.2060354495519118,0.155035241832495,0.0615245316868438,1.768287685979573,5.299242996624475,1486.0769725561709,0.445472996565193,2.407884138066968
pipeline-snv-asls-osc3-default,0.0986298297869067,12.26796917429779,3.438338800785405,1.5246819272371666,5.170938402281728,3.125774142992792,3.476257171450452,4.232817839143871,4.202643762375059,4.356723960069083,98.738633201684,0.3849615933274015,0.6057171547527315,1.7617026193418048,4.573413291861569,1.819514641983106,2.352622727739252,36.99616656524763,23.78496167013272,29.52983281696509,0.1407926749900311,0.767304783929998,14.351182792085192,17.135413738884264,14.5823928397877,0.9450752824761314,0.3055243586260102,0.0334724318986774,0.7754094473505875,0.1621223203848826,7.36584195677784,0.8047712710219326,0.0194069579534964,8282.08486682126,33977.29077227189,0.3300928368827034,0.1611427180244047,5.17373511450266,0.1059571225458746,1.3598662212051733,1.36583804483548,0.1494523370193925,0.0671332833590816,0.3723745597492472,0.44993564908599,0.3373713576413187,0.2472018704004392,5.311770195934438,6.533235348143153,0.2005199355076501,0.157885090326946,0.0641576675143757,1.7413725651347196,5.299567673404708,1486.1860370979512,0.4454408045490668,2.407206305127607
pipeline-snv-asls-x-compact,0.0617584430569809,7.854674950483975,2.85843787644565,0.8379029199730118,2.980210563710804,1.8931098556276704,3.652038515823463,3.8259007609015008,4.369623416835064,5.200752598820065,72.89417863208556,0.2646807690974219,0.4288762314093933,0.7130112813807301,3.0418890316283047,1.983841844886848,3.569944598795721,68.22205035366122,50.65281841123874,60.025852244151096,0.0617810112420342,0.1327437694569631,3.2385328208222224,3.042358555062463,3.0332946794109,0.4017598187800013,0.213649395977209,0.0321732263784349,0.3036536968437875,0.16429446640519,5.543619329282942,0.4090011793410598,0.0196718750377992,8091.798054367693,36361.15692890299,0.078590572569274,0.0587494253139075,4.2081667840919295,0.1034065872422462,0.2888063816742237,0.2715786428690504,0.1789729399154589,0.0163381295150056,0.2503668740135197,0.487295544986364,0.2562479839978708,0.1947990788169261,2.29340793733984,5.253637742386712,0.3551705418043724,0.1293549565127014,0.0508040906361934,1.964130459875072,4.778490582433655,945.6235905320416,0.3818761570016043,2.51698499256024
pipeline-snv-asls-x-default,0.0672337389539979,7.829242840681352,2.819555178800702,0.7878046117665176,2.983741592422172,1.9304012251337244,3.800677970773072,4.532783268917545,4.3440748711614825,5.383189312949431,71.64975708370328,0.2646355929287901,0.264766552604145,0.693315956158831,3.3345154456055326,1.8876016029765776,3.1385218191737314,104.77840045556415,51.093918150605056,60.025852244151096,0.0681792749248719,0.1484666646855748,3.3306155118264664,3.4481992343675967,3.0332946794109,0.3638760722811545,0.3225667855645388,0.0320098405753137,0.3039914366057921,0.1661186092740614,5.5177726822369255,0.4132260065707789,0.0196879367592906,8127.137732821793,36461.8962738269,0.0865098107526525,0.0611064486778604,4.272965763804075,0.1037774655283683,0.2843521893026369,0.2740500679046222,0.2113395234047318,0.0163927602150831,0.2549671229292646,0.4901450780440017,0.2670891308222128,0.1947990788169261,2.075752694736062,5.03920183327123,0.3509751848154643,0.1339750512745799,0.0506282141141909,2.088640672683771,4.331292829727534,993.3275237986604,0.3460922118922012,1.9268278812367703
pipeline-snv-x-osc1-compact,0.0981433606653454,10.009441227904794,4.017806523036002,1.3719584320988014,4.560104844837028,3.756211259912767,3.4009751367200445,4.2458428586546,4.192832617396907,4.382509234189219,97.8611133280726,0.2515827239021362,0.3150321281176468,2.127294338123208,5.331609449158499,1.837232731613576,2.314250363927386,40.843554669217895,39.86398013411949,45.54654678347552,0.1548656626784611,0.743531849484477,14.054306637856977,16.802917279963076,14.366484469388876,1.0539827442969814,0.3590063698314717,0.0333109199407796,0.5574706134767414,0.1607775764421951,7.198855917647606,1.0591397634567112,0.01952755730079,7856.057910143253,34081.41685713733,0.3327982604739881,0.1608377678307754,5.176838995943543,0.1116703500101229,1.3563592237693918,1.3552417323285255,0.1543699227724538,0.0657042226343402,0.3648755603489023,0.4487913050823379,0.2620734403033234,0.2472091830024913,5.377751556340925,6.53714651607062,0.2214008161869204,0.1554055303739586,0.0623493198012455,1.8368096367222184,5.355216120876512,1463.2462672156998,0.4487604088214855,2.405520353746766
pipeline-snv-x-osc1-default,0.0981433606653454,10.009441227904794,4.024862184193581,1.371855983708573,4.557451700419102,3.756328736496545,3.4213023753844536,4.24155695583324,4.192832617396907,4.31875993963288,96.77058774798805,0.2570683911486707,0.2952904242086773,1.996461904238203,7.179187754020012,1.837240507726575,2.314250363927386,43.2884071985461,39.69269037654958,43.60640272941122,0.1548656626784611,0.7435871649498,14.04757421937737,17.215349042403727,14.343131380600262,1.062681543668128,0.3595069994777063,0.0331768833297895,0.5574706134767413,0.1607775764421951,7.198855917647606,1.0591397634567112,0.0194644006505358,7823.814256066388,34172.28407204965,0.3395395255513064,0.1608379315597468,5.17674118012917,0.1116535661614581,1.3563592237693918,1.3552417323285255,0.1512751079572889,0.0656766085753199,0.373491401454611,0.4258666627045749,0.2578177064579544,0.2486745584149016,5.3499191205513,6.537510060072925,0.2214008161869204,0.1540272223840383,0.0631484538858398,1.8406059888897228,5.355246997493977,1463.4490890646853,0.4487604088214855,2.4054917463237664
pipeline-snv-x-osc2-compact,0.0980586482977302,10.0300519720197,4.018431852902197,1.3719027572661666,4.562383816429903,3.713350855672372,3.389945498270489,4.248980095322191,4.19287919089722,4.441233069200489,96.52738332698064,0.2485522963320132,0.3119779762888823,2.147190544332134,4.490599647680861,1.8376903325479363,2.2877682493527174,45.90327384472898,39.25063751680104,45.849646082370434,0.169268456459507,0.75105379206125,14.055576129536195,16.802625393523087,14.37512247970435,0.9495688950736614,0.3590063698314717,0.0333949432327768,0.5574706134767418,0.1608729505765948,7.198855917647606,1.0597760898219817,0.0196040950982105,7854.37421053969,34043.20375116514,0.3381620927423087,0.1608212073120849,5.175609515454152,0.1124613594176796,1.355847734047266,1.354667502690149,0.1574292124795884,0.0706493020865789,0.3604838792366976,0.4340049019608963,0.2622483853147408,0.248030683465596,5.365613153182682,6.519934834348117,0.2166682513007228,0.155392546529749,0.0608502889899139,1.813319645333306,5.35524003229594,1464.112230154044,0.4487638486661772,2.4055454049445646
