1100;1105;1110;1115;1120;1125;1130;1135;1140;1145;1150;1155;1160;1165;1170;1175;1180;1185;1190;1195;1200;1205;1210;1215;1220;1225;1230;1235;1240;1245;1250;1255;1260;1265;1270;1275;1280;1285;1290;1295;1301;1306;1311;1316;1321;1326;1331;1336;1341;1346;1351;1356;1361;1366;1371;1376;1381;1386;1391;1396;1401;1406;1411;1416;1421;1426;1431;1436;1441;1446;1451;1456;1461;1466;1471;1476;1481;1486;1491;1496;1502;1507;1512;1517;1522;1527;1532;1537;1542;1547;1552;1557;1562;1567;1572;1577;1582;1587;1592;1597;1602;1607;1612;1617;1622;1627;1632;1637;1642;1647;1652;1657;1662;1667;1672;1677;1682;1687;1692;1697;1703;1708;1713;1718;1723;1728;1733;1738;1743;1748;1753;1758;1763;1768;1773;1778;1783;1788;1793;1798;1803;1808;1813;1818;1823;1828;1833;1838;1843;1848;1853;1858;1863;1868;1873;1878;1883;1888;1893;1898;1904;1909;1914;1919;1924;1929;1934;1939;1944;1949;1954;1959;1964;1969;1974;1979;1984;1989;1994;1999;2004;2009;2014;2019;2024;2029;2034;2039;2044;2049;2054;2059;2064;2069;2074;2079;2084;2089;2094;2100
0.533309;0.539195;0.543848;0.543654;0.544910;0.544061;0.550546;0.550410;0.559014;0.561800;0.562703;0.567833;0.570407;0.572272;0.577025;0.581356;0.581668;0.583767;0.593518;0.594089;0.597886;0.602144;0.606946;0.608038;0.612802;0.614868;0.617315;0.619981;0.628271;0.630281;0.632300;0.635514;0.641719;0.644302;0.650300;0.649803;0.656726;0.657158;0.663505;0.658406;0.665416;0.664517;0.675696;0.676227;0.679229;0.680484;0.680015;0.683996;0.687823;0.689888;0.687835;0.692660;0.693097;0.694934;0.697577;0.703479;0.703387;0.703474;0.706238;0.702532;0.705765;0.710456;0.709238;0.716553;0.714843;0.717701;0.708587;0.709311;0.712848;0.711958;0.717712;0.716992;0.716513;0.719082;0.713301;0.720202;0.714492;0.721583;0.721243;0.715982;0.717576;0.713390;0.715018;0.717097;0.717692;0.714529;0.712937;0.714506;0.713996;0.712708;0.710811;0.708765;0.708363;0.707141;0.706415;0.700237;0.707042;0.700551;0.698292;0.702259;0.695088;0.691646;0.697021;0.695862;0.691547;0.692999;0.687067;0.689637;0.687712;0.687467;0.685468;0.688638;0.681938;0.682610;0.682999;0.682292;0.679014;0.681708;0.675775;0.677456;0.677099;0.675616;0.674996;0.674231;0.673928;0.672417;0.670459;0.672844;0.672139;0.671333;0.667979;0.668391;0.670837;0.668297;0.669741;0.667447;0.665697;0.667258;0.669211;0.665734;0.662086;0.663975;0.668150;0.657304;0.665997;0.664221;0.656529;0.661276;0.662185;0.658453;0.661352;0.659228;0.659131;0.655969;0.654169;0.646175;0.646483;0.649933;0.645533;0.640413;0.643280;0.640890;0.636132;0.634664;0.634241;0.628260;0.625074;0.624066;0.621759;0.620399;0.615455;0.617000;0.612361;0.603462;0.604186;0.602370;0.595826;0.593227;0.588772;0.590216;0.580691;0.584349;0.575513;0.577439;0.569667;0.571214;0.565439;0.560033;0.555438;0.556193;0.553656;0.551442;0.544697;0.539891;0.546401;0.538157;0.534329;0.537998;0.535682;0.529694
0.520435;0.522159;0.526345;0.526796;0.530640;0.531142;0.530083;0.532059;0.536215;0.539885;0.544386;0.539381;0.542180;0.547162;0.546864;0.544905;0.549902;0.552810;0.553920;0.555154;0.558190;0.556339;0.563951;0.560056;0.564398;0.570393;0.569686;0.571019;0.574948;0.572346;0.573714;0.580021;0.581670;0.584341;0.587251;0.582870;0.586183;0.589093;0.589256;0.590775;0.591042;0.592298;0.594901;0.592593;0.599867;0.594277;0.603978;0.599464;0.600666;0.596254;0.595064;0.597421;0.598728;0.602371;0.600393;0.606779;0.607731;0.603348;0.600689;0.605562;0.606610;0.605318;0.612705;0.610344;0.612379;0.610433;0.612311;0.611858;0.618840;0.616014;0.623662;0.624660;0.631292;0.628205;0.628326;0.640025;0.643015;0.642588;0.646534;0.651268;0.660126;0.658662;0.669820;0.666961;0.677324;0.680361;0.687658;0.695093;0.701188;0.706068;0.710317;0.719846;0.725211;0.732872;0.738970;0.739579;0.753943;0.758707;0.764075;0.767960;0.780373;0.781424;0.779327;0.792372;0.797711;0.804611;0.808805;0.814731;0.818386;0.825521;0.829392;0.833386;0.840524;0.839200;0.843306;0.847408;0.844567;0.849811;0.847318;0.844692;0.852094;0.846712;0.852772;0.847325;0.848715;0.848047;0.843072;0.844679;0.835999;0.831335;0.826239;0.826066;0.818303;0.817737;0.813353;0.811830;0.799937;0.792101;0.785220;0.783166;0.777062;0.763246;0.763994;0.757564;0.753173;0.744131;0.737778;0.728087;0.720244;0.713189;0.710372;0.703866;0.693352;0.689259;0.687866;0.678227;0.672266;0.663842;0.661058;0.652246;0.650178;0.642978;0.635920;0.632753;0.625150;0.618367;0.616591;0.610236;0.604423;0.598878;0.594534;0.592823;0.590048;0.590782;0.580280;0.576555;0.572220;0.570854;0.570675;0.566467;0.568287;0.558264;0.551547;0.553152;0.548834;0.545691;0.544000;0.541790;0.541755;0.541755;0.538853;0.538624;0.534203;0.533985;0.529309;0.524189;0.527284;0.521533;0.522723;0.517839
0.515370;0.516579;0.518717;0.517244;0.521739;0.521723;0.521045;0.522027;0.524710;0.527334;0.529828;0.532520;0.530201;0.534328;0.535229;0.533778;0.539972;0.537710;0.543002;0.538656;0.539672;0.548861;0.547250;0.549240;0.546148;0.552387;0.551145;0.553999;0.558804;0.555965;0.555290;0.559805;0.560964;0.566789;0.566128;0.562722;0.569793;0.565147;0.566056;0.572227;0.571017;0.569282;0.575433;0.575100;0.575811;0.579934;0.578142;0.574128;0.579821;0.580719;0.581741;0.582597;0.579363;0.575955;0.584927;0.586138;0.593101;0.590289;0.595300;0.597330;0.592503;0.594622;0.597509;0.603367;0.606260;0.602880;0.606187;0.612980;0.618203;0.618299;0.618870;0.625466;0.629685;0.633406;0.639501;0.640337;0.645277;0.654817;0.652822;0.661298;0.671422;0.681549;0.681298;0.682851;0.697631;0.704675;0.714248;0.717111;0.725098;0.733453;0.743809;0.752295;0.756700;0.763790;0.775126;0.781314;0.788518;0.799857;0.797896;0.815399;0.821441;0.828356;0.837918;0.843298;0.852249;0.852027;0.864493;0.869388;0.873752;0.876199;0.885820;0.889210;0.891639;0.893780;0.901327;0.899342;0.900014;0.900752;0.906950;0.904505;0.900875;0.902159;0.896580;0.897715;0.894359;0.893012;0.886658;0.881651;0.876086;0.872987;0.866915;0.859368;0.850641;0.847117;0.843190;0.829854;0.821074;0.812443;0.804112;0.797773;0.787968;0.779951;0.764266;0.764891;0.752854;0.744966;0.731148;0.722646;0.712338;0.707776;0.696611;0.687913;0.680657;0.670176;0.662410;0.653590;0.647073;0.640203;0.631945;0.623613;0.618522;0.612897;0.610984;0.593909;0.591622;0.587002;0.583221;0.579819;0.570409;0.565460;0.564678;0.555783;0.551985;0.549604;0.544487;0.546343;0.539132;0.540482;0.534965;0.531475;0.533034;0.529966;0.531150;0.527011;0.523911;0.522166;0.516035;0.520221;0.522345;0.517334;0.512256;0.512450;0.511957;0.514263;0.511710;0.512336;0.511472;0.514056;0.512641;0.507133
0.587262;0.596297;0.602883;0.606433;0.614065;0.614715;0.625998;0.637407;0.643038;0.646400;0.655823;0.665823;0.675511;0.678499;0.684887;0.695844;0.702148;0.715284;0.722440;0.725634;0.726654;0.741681;0.746817;0.757035;0.768866;0.774975;0.781216;0.787197;0.793697;0.799346;0.801968;0.809838;0.816505;0.821248;0.828455;0.825467;0.831833;0.834649;0.836726;0.842622;0.846368;0.845470;0.844552;0.844809;0.844858;0.845395;0.845102;0.842104;0.837980;0.843900;0.839111;0.839770;0.834283;0.828235;0.829753;0.825774;0.821356;0.818181;0.811840;0.804303;0.803153;0.797983;0.790917;0.785870;0.777583;0.772768;0.769853;0.763908;0.755876;0.752980;0.751794;0.747756;0.740507;0.733515;0.724770;0.722258;0.719170;0.712669;0.708570;0.706723;0.697531;0.700478;0.694276;0.687048;0.681013;0.676306;0.674535;0.673412;0.665368;0.664227;0.656824;0.654581;0.650768;0.648243;0.647880;0.641965;0.643777;0.642190;0.639469;0.630207;0.629593;0.625345;0.621591;0.624891;0.618762;0.621832;0.617051;0.616844;0.613499;0.612700;0.608051;0.602678;0.606709;0.599732;0.595402;0.602057;0.600136;0.597387;0.593378;0.593458;0.598802;0.589757;0.590031;0.590280;0.588442;0.586323;0.582922;0.582242;0.584741;0.586637;0.582899;0.583386;0.578529;0.578108;0.579732;0.575354;0.573738;0.573207;0.574946;0.569206;0.573313;0.570764;0.567894;0.566365;0.568482;0.565125;0.562960;0.562414;0.563917;0.559219;0.557399;0.556351;0.558546;0.556332;0.557923;0.554690;0.552922;0.557116;0.554626;0.549178;0.553326;0.549746;0.549328;0.550270;0.544512;0.543884;0.547394;0.540602;0.543286;0.539446;0.538699;0.542134;0.540188;0.536145;0.537959;0.530206;0.537153;0.532595;0.531663;0.529642;0.529404;0.529679;0.527499;0.525754;0.524210;0.528170;0.527408;0.521754;0.523253;0.522435;0.524397;0.516464;0.516158;0.510637;0.514441;0.511386;0.513234;0.504475;0.507549;0.515250
0.533655;0.534131;0.537898;0.539782;0.538920;0.541243;0.546492;0.546533;0.553924;0.555575;0.559605;0.561200;0.565684;0.566903;0.574565;0.569674;0.575613;0.578171;0.587582;0.584338;0.592813;0.590714;0.594279;0.599040;0.602993;0.601652;0.606937;0.605325;0.616281;0.611395;0.616378;0.620088;0.622365;0.623541;0.629455;0.626159;0.631877;0.626040;0.636822;0.632890;0.640327;0.638964;0.639936;0.642908;0.644559;0.640496;0.642443;0.643568;0.644502;0.642153;0.647096;0.645786;0.646721;0.645230;0.646159;0.646197;0.646688;0.646887;0.643861;0.642755;0.641028;0.641643;0.639870;0.639142;0.637565;0.633968;0.634880;0.633143;0.640052;0.636597;0.634577;0.630733;0.630284;0.622532;0.630791;0.631278;0.626577;0.624991;0.627861;0.623698;0.620505;0.622812;0.620750;0.617514;0.620902;0.618083;0.618261;0.614048;0.613098;0.611066;0.607837;0.610114;0.608848;0.605020;0.608230;0.609873;0.605458;0.603928;0.605484;0.605175;0.608314;0.605484;0.604107;0.612115;0.608270;0.605931;0.606310;0.613558;0.613912;0.614859;0.612357;0.617333;0.618697;0.622124;0.626091;0.626961;0.628129;0.629332;0.631667;0.639969;0.637712;0.639536;0.652978;0.648730;0.655150;0.662048;0.666081;0.668682;0.676600;0.678681;0.684098;0.685018;0.696556;0.699295;0.703506;0.709403;0.715480;0.719218;0.733597;0.734125;0.734068;0.740924;0.746842;0.749647;0.758598;0.759063;0.761529;0.766792;0.772720;0.774215;0.782015;0.781193;0.781167;0.776390;0.784635;0.781457;0.787476;0.788141;0.786967;0.791149;0.783292;0.781948;0.781123;0.780618;0.776091;0.775563;0.771576;0.770662;0.766962;0.762029;0.757054;0.752180;0.748710;0.744521;0.736059;0.727942;0.725202;0.715717;0.712644;0.702641;0.697353;0.690924;0.684158;0.677062;0.672646;0.663769;0.658844;0.650746;0.643908;0.635917;0.633205;0.624703;0.616803;0.612714;0.607109;0.599489;0.594681;0.590267;0.584440;0.582307
0.525574;0.525201;0.528996;0.533888;0.535508;0.530389;0.539203;0.539365;0.531972;0.542818;0.551233;0.548126;0.553632;0.550381;0.555743;0.555606;0.557266;0.559316;0.561581;0.568442;0.566992;0.568909;0.573942;0.577429;0.574398;0.578302;0.576367;0.581898;0.584531;0.584040;0.588807;0.586793;0.591519;0.595749;0.591349;0.592320;0.599074;0.595715;0.599534;0.598349;0.600355;0.601583;0.598312;0.599756;0.599902;0.604986;0.602138;0.599268;0.603207;0.601951;0.600509;0.599579;0.600283;0.602304;0.602015;0.602126;0.600420;0.594798;0.604624;0.599329;0.598214;0.595890;0.598195;0.597982;0.597249;0.604428;0.596612;0.604408;0.602789;0.606602;0.602925;0.607199;0.605588;0.615862;0.611679;0.617044;0.613672;0.619798;0.622731;0.625054;0.630019;0.632841;0.637838;0.640604;0.649389;0.650431;0.652901;0.660586;0.663531;0.675927;0.677468;0.684636;0.690382;0.694747;0.700922;0.712976;0.715313;0.721079;0.726367;0.734361;0.737538;0.746189;0.755424;0.758170;0.761845;0.770978;0.778073;0.777944;0.790409;0.788289;0.796868;0.802002;0.802166;0.807109;0.813459;0.820831;0.819641;0.819927;0.823292;0.826972;0.824856;0.822369;0.825275;0.827618;0.828302;0.826231;0.819357;0.822014;0.818952;0.816755;0.810189;0.816968;0.811949;0.805991;0.804035;0.796732;0.798656;0.790461;0.781650;0.778385;0.778118;0.774355;0.759788;0.760261;0.751939;0.746934;0.741061;0.736397;0.725313;0.727194;0.720741;0.715823;0.711319;0.701264;0.697936;0.694378;0.688991;0.681141;0.668076;0.672914;0.665296;0.663706;0.649420;0.649119;0.643497;0.640288;0.636435;0.624905;0.625209;0.615664;0.614373;0.615634;0.608542;0.605594;0.594946;0.591102;0.590178;0.586386;0.578302;0.577040;0.572598;0.572448;0.564968;0.564404;0.556577;0.555063;0.553191;0.547889;0.549885;0.548942;0.546024;0.545002;0.535892;0.535719;0.535117;0.527954;0.530009;0.522641;0.523651;0.518709
0.618159;0.627734;0.630588;0.637625;0.647094;0.659077;0.665419;0.674216;0.682650;0.694015;0.705664;0.714680;0.727423;0.734729;0.745478;0.753622;0.768319;0.773395;0.786519;0.794723;0.813044;0.815860;0.822243;0.835555;0.847193;0.849551;0.859644;0.870150;0.871804;0.884364;0.888115;0.894436;0.902841;0.907382;0.911095;0.913068;0.913901;0.915607;0.922248;0.919204;0.917525;0.924630;0.923346;0.917449;0.919377;0.912519;0.910078;0.913015;0.904675;0.894268;0.897639;0.884557;0.880265;0.870702;0.865516;0.853978;0.847638;0.841861;0.829216;0.815002;0.812301;0.802699;0.791210;0.782666;0.775556;0.766784;0.752653;0.747480;0.735587;0.726818;0.715011;0.709551;0.699155;0.690818;0.675369;0.665448;0.660514;0.653629;0.646858;0.634913;0.629469;0.624844;0.619579;0.611548;0.602399;0.599775;0.592664;0.590277;0.579893;0.582069;0.575383;0.573987;0.566048;0.566250;0.563784;0.562854;0.555901;0.556221;0.549977;0.549175;0.547770;0.545334;0.545078;0.543446;0.544476;0.540889;0.541324;0.542011;0.536078;0.536281;0.538617;0.540075;0.540324;0.542597;0.537366;0.535144;0.536529;0.537809;0.537812;0.536889;0.538760;0.536809;0.545821;0.541763;0.539878;0.539829;0.541103;0.538767;0.545552;0.543521;0.545207;0.541091;0.543381;0.541937;0.546579;0.545607;0.543914;0.547019;0.548024;0.548092;0.546921;0.548825;0.550076;0.550448;0.546627;0.547893;0.547309;0.549353;0.551677;0.551173;0.551658;0.554027;0.553583;0.556262;0.552223;0.552743;0.550504;0.551470;0.551110;0.552617;0.549642;0.547512;0.549050;0.548804;0.550886;0.546097;0.544044;0.543849;0.543366;0.542600;0.545275;0.538645;0.543277;0.534607;0.535331;0.540166;0.537944;0.535516;0.532911;0.532616;0.528655;0.529340;0.527172;0.525391;0.526263;0.522282;0.522552;0.525468;0.522526;0.518407;0.521888;0.517536;0.514896;0.510624;0.515463;0.518137;0.513339;0.511944;0.508979;0.505836
0.537033;0.537010;0.540810;0.543138;0.548689;0.555940;0.553902;0.556309;0.559667;0.560163;0.561259;0.568665;0.575046;0.579098;0.581386;0.583733;0.586204;0.587286;0.590400;0.596275;0.601017;0.602938;0.605320;0.611365;0.606930;0.616654;0.618031;0.623365;0.623736;0.625698;0.624262;0.629303;0.635574;0.637677;0.640982;0.639194;0.639985;0.641687;0.640473;0.644412;0.643051;0.645597;0.644478;0.646129;0.646840;0.646935;0.644744;0.644189;0.646350;0.642930;0.640206;0.645486;0.646134;0.638363;0.639341;0.637361;0.635270;0.637192;0.638399;0.637218;0.632153;0.632096;0.634693;0.627746;0.627087;0.631202;0.633836;0.631923;0.626965;0.628436;0.628920;0.625511;0.634090;0.629755;0.631120;0.632738;0.633067;0.638482;0.635552;0.638908;0.644839;0.646816;0.652448;0.654270;0.660049;0.661224;0.664457;0.670627;0.673941;0.678924;0.688766;0.687932;0.699374;0.698121;0.708555;0.713405;0.716187;0.723501;0.729819;0.733835;0.744095;0.746201;0.751161;0.757860;0.758066;0.766952;0.771477;0.776019;0.780137;0.786542;0.788730;0.793786;0.794965;0.799490;0.804162;0.806157;0.804338;0.805295;0.807783;0.805228;0.808002;0.808112;0.809230;0.803222;0.804178;0.804019;0.797990;0.802370;0.792278;0.790825;0.787213;0.786139;0.775194;0.777546;0.775344;0.767959;0.757720;0.756526;0.749703;0.742427;0.738468;0.731889;0.721490;0.720880;0.713842;0.707520;0.698343;0.688913;0.687341;0.678926;0.677118;0.668812;0.664142;0.657842;0.649388;0.643405;0.638956;0.637260;0.633832;0.623510;0.614930;0.610070;0.612929;0.604479;0.596878;0.590483;0.587214;0.583911;0.584527;0.579034;0.571608;0.572070;0.569814;0.563481;0.562184;0.556954;0.552290;0.550093;0.546857;0.544800;0.543797;0.538363;0.536178;0.536032;0.532361;0.528060;0.528131;0.527436;0.523039;0.522540;0.519389;0.518091;0.517612;0.512715;0.516639;0.514823;0.513841;0.511383;0.509617;0.504548
0.564774;0.566529;0.564596;0.576112;0.582727;0.583273;0.588672;0.597914;0.602102;0.603416;0.612335;0.614689;0.623003;0.626941;0.633715;0.633640;0.646870;0.648695;0.653676;0.664075;0.670890;0.673498;0.675416;0.682938;0.687103;0.690016;0.696966;0.704975;0.708201;0.715880;0.719986;0.720424;0.727848;0.728555;0.731346;0.726773;0.731237;0.734742;0.739558;0.738770;0.740297;0.741732;0.738965;0.745737;0.744092;0.744029;0.738273;0.745564;0.741051;0.736994;0.730931;0.729773;0.732781;0.725166;0.726702;0.721859;0.718053;0.719119;0.710303;0.708642;0.706193;0.704023;0.697461;0.695326;0.690559;0.690212;0.685603;0.688953;0.676263;0.676626;0.671362;0.669952;0.666887;0.667872;0.662590;0.666029;0.657682;0.657944;0.654123;0.652620;0.655039;0.652178;0.649531;0.650516;0.655080;0.651135;0.646022;0.651296;0.650969;0.649945;0.652403;0.650380;0.656760;0.659634;0.658721;0.656046;0.657215;0.661101;0.662472;0.661152;0.669359;0.670253;0.667292;0.672185;0.676098;0.673490;0.671042;0.676047;0.683381;0.679060;0.685322;0.683367;0.686907;0.684448;0.688533;0.690412;0.692136;0.692668;0.691191;0.691884;0.693419;0.691673;0.693719;0.691989;0.693476;0.690429;0.688366;0.687165;0.690327;0.689734;0.686564;0.685688;0.687673;0.683407;0.681437;0.681884;0.679814;0.675295;0.677420;0.671950;0.663083;0.666271;0.663272;0.662294;0.661965;0.663141;0.657967;0.651335;0.651180;0.649313;0.642154;0.639963;0.640587;0.641549;0.634605;0.631567;0.629871;0.628706;0.619562;0.621241;0.616249;0.613455;0.608326;0.605232;0.609300;0.602672;0.598231;0.603018;0.595431;0.596005;0.591924;0.586939;0.586750;0.584176;0.575854;0.576731;0.573318;0.571285;0.568715;0.563370;0.557715;0.562286;0.558884;0.557506;0.553564;0.549299;0.550334;0.544904;0.548694;0.540338;0.542088;0.540345;0.537715;0.534301;0.533685;0.529701;0.535613;0.524862;0.528741;0.525844
0.513158;0.519281;0.512486;0.517952;0.513404;0.520530;0.518306;0.518407;0.523337;0.522528;0.520462;0.524825;0.524675;0.522035;0.527668;0.531716;0.532768;0.529304;0.535225;0.540023;0.537124;0.537457;0.540917;0.541610;0.544434;0.549881;0.550796;0.555673;0.551353;0.554231;0.562101;0.563803;0.564421;0.568508;0.561767;0.571936;0.569046;0.580084;0.577464;0.584855;0.584688;0.586962;0.589639;0.592462;0.594435;0.596833;0.605242;0.605090;0.606477;0.610702;0.615776;0.616671;0.619349;0.627242;0.629092;0.630471;0.630987;0.634273;0.636019;0.641175;0.643654;0.649848;0.652634;0.656968;0.652977;0.663426;0.660663;0.665380;0.662085;0.670177;0.668185;0.669572;0.672917;0.672647;0.674733;0.674035;0.679307;0.674576;0.676940;0.679209;0.676817;0.681032;0.679010;0.675837;0.677764;0.679567;0.676923;0.675108;0.680168;0.672748;0.672511;0.673911;0.664419;0.665564;0.663021;0.664105;0.658178;0.658008;0.660303;0.655454;0.649280;0.653497;0.648962;0.650868;0.650775;0.648492;0.645648;0.648536;0.644090;0.646017;0.642305;0.642822;0.645339;0.642493;0.642445;0.641772;0.646939;0.643326;0.646423;0.643795;0.649024;0.656935;0.655287;0.657148;0.663977;0.662460;0.665025;0.672732;0.670269;0.672282;0.678543;0.682280;0.685320;0.694544;0.693392;0.701356;0.704121;0.706395;0.711552;0.720196;0.722667;0.726403;0.733240;0.740180;0.740268;0.745492;0.746607;0.752143;0.757959;0.759970;0.761310;0.762169;0.768256;0.761095;0.769327;0.767632;0.769236;0.771495;0.769239;0.767982;0.768314;0.768891;0.763937;0.759255;0.755753;0.754418;0.756524;0.753557;0.748351;0.742882;0.739636;0.734150;0.728049;0.725718;0.717599;0.713317;0.704746;0.697286;0.690836;0.689571;0.679362;0.670956;0.665924;0.665990;0.653330;0.652506;0.642824;0.632911;0.630975;0.616003;0.614477;0.610087;0.601308;0.594863;0.588692;0.589281;0.574534;0.576694;0.574334;0.567628
0.546150;0.549954;0.556502;0.555896;0.563776;0.563498;0.570068;0.570428;0.572070;0.578683;0.587005;0.587053;0.593015;0.596171;0.601319;0.609964;0.613008;0.618679;0.622305;0.630251;0.632641;0.639553;0.644713;0.647414;0.652829;0.660696;0.662246;0.672607;0.676436;0.680576;0.685216;0.689250;0.698147;0.699985;0.704369;0.705322;0.718117;0.719577;0.723716;0.733466;0.735634;0.740489;0.747355;0.751487;0.749000;0.758934;0.766444;0.766104;0.770823;0.769559;0.778330;0.785793;0.785914;0.790441;0.789870;0.792473;0.801926;0.796396;0.805292;0.804342;0.812459;0.811796;0.812845;0.816479;0.818237;0.822194;0.820430;0.826538;0.823969;0.826086;0.829741;0.831791;0.829937;0.828708;0.823116;0.829424;0.824894;0.823883;0.825188;0.826231;0.820507;0.816606;0.822642;0.817286;0.810241;0.808269;0.809053;0.803907;0.801177;0.794211;0.793449;0.791166;0.783404;0.774391;0.774823;0.768283;0.762322;0.760675;0.754989;0.749785;0.740427;0.734622;0.732620;0.728412;0.718971;0.717417;0.713638;0.703087;0.703080;0.693469;0.691756;0.685943;0.682154;0.673089;0.671610;0.663643;0.662383;0.659144;0.651640;0.648439;0.643843;0.633723;0.630299;0.627477;0.620785;0.617318;0.612784;0.610310;0.606818;0.604187;0.599904;0.594803;0.590328;0.585611;0.586603;0.578233;0.577906;0.576633;0.575176;0.561810;0.569711;0.566469;0.556107;0.558331;0.550538;0.548763;0.551061;0.549007;0.543150;0.540815;0.543969;0.538915;0.537611;0.537282;0.532167;0.529717;0.527378;0.526739;0.525207;0.523313;0.516780;0.521981;0.519506;0.518675;0.518211;0.513141;0.514198;0.516302;0.516342;0.510597;0.511271;0.512340;0.512343;0.505933;0.507962;0.508859;0.504569;0.509518;0.503504;0.500457;0.503343;0.500256;0.499142;0.498162;0.499459;0.498621;0.494880;0.497526;0.498047;0.500655;0.504250;0.499511;0.500794;0.497936;0.495930;0.497618;0.500815;0.497391;0.500365;0.495872
0.516959;0.515607;0.519789;0.515726;0.516784;0.518958;0.524752;0.520327;0.525863;0.526365;0.524831;0.529091;0.532901;0.532987;0.537960;0.541727;0.543543;0.544248;0.537374;0.543384;0.548031;0.552896;0.555299;0.555380;0.558065;0.562375;0.561463;0.567187;0.571275;0.575967;0.574207;0.584642;0.582740;0.591311;0.592602;0.596253;0.599675;0.603907;0.610635;0.612619;0.618410;0.622219;0.624662;0.633225;0.640393;0.646661;0.644156;0.653728;0.655749;0.658267;0.667083;0.673233;0.677513;0.685977;0.695278;0.693401;0.700816;0.706692;0.706863;0.716200;0.721390;0.728489;0.732928;0.739869;0.745024;0.751853;0.753259;0.759958;0.759955;0.766727;0.771956;0.774026;0.779488;0.779334;0.786802;0.788276;0.787988;0.790295;0.791532;0.797653;0.798161;0.799151;0.799512;0.803017;0.804236;0.801543;0.798704;0.798314;0.800277;0.796372;0.799777;0.800476;0.797954;0.793684;0.794208;0.791961;0.786366;0.785582;0.779780;0.785538;0.777744;0.776715;0.777407;0.771891;0.771379;0.764169;0.762546;0.761508;0.756292;0.751350;0.748551;0.746063;0.739865;0.739467;0.738205;0.737117;0.733804;0.727115;0.727013;0.719708;0.720622;0.713025;0.716732;0.714414;0.710724;0.701322;0.708184;0.700520;0.696526;0.693557;0.692522;0.683989;0.688348;0.680555;0.675832;0.680074;0.676527;0.671712;0.666960;0.665778;0.661278;0.661112;0.661767;0.658513;0.656301;0.651695;0.653838;0.648250;0.646484;0.645667;0.642052;0.637066;0.636971;0.632460;0.631814;0.633763;0.624194;0.622358;0.622613;0.619459;0.617363;0.617783;0.609668;0.609449;0.601452;0.604625;0.604869;0.602155;0.595774;0.599298;0.592846;0.587540;0.582276;0.579252;0.578749;0.575004;0.574905;0.568636;0.571956;0.562036;0.569349;0.563768;0.559454;0.557222;0.557321;0.554368;0.547995;0.550682;0.550838;0.544394;0.539540;0.539695;0.539028;0.539300;0.536499;0.533825;0.530871;0.525163;0.525430;0.525900
0.508670;0.505053;0.507612;0.505489;0.508576;0.509755;0.508037;0.512274;0.508528;0.511480;0.516140;0.512840;0.514896;0.513775;0.516367;0.515560;0.520964;0.518446;0.523469;0.520830;0.524902;0.525238;0.524441;0.531590;0.528906;0.529482;0.527891;0.537098;0.537643;0.536539;0.541230;0.544564;0.548581;0.548434;0.552001;0.553696;0.554567;0.555347;0.559240;0.565778;0.566587;0.571366;0.572286;0.578531;0.583123;0.586001;0.589972;0.594187;0.593403;0.598094;0.599312;0.605949;0.607374;0.613990;0.623627;0.622361;0.628275;0.632338;0.634706;0.636731;0.643827;0.646640;0.651919;0.657643;0.659744;0.668302;0.671085;0.679670;0.677338;0.687984;0.687147;0.690931;0.699226;0.700656;0.704241;0.705255;0.711423;0.711660;0.716200;0.723191;0.720869;0.727071;0.727140;0.734627;0.732447;0.737101;0.738647;0.743610;0.741571;0.746592;0.742860;0.750625;0.751586;0.754952;0.756176;0.757008;0.754964;0.762997;0.759654;0.760798;0.764101;0.762470;0.765117;0.764615;0.766200;0.766053;0.770204;0.769179;0.766821;0.770047;0.769105;0.766302;0.770318;0.765278;0.771957;0.769881;0.773395;0.766994;0.769759;0.767632;0.765992;0.767091;0.764507;0.766622;0.768520;0.764302;0.765178;0.763196;0.762848;0.757793;0.758249;0.755822;0.757261;0.753978;0.749369;0.745613;0.746014;0.744027;0.741320;0.737799;0.735799;0.734450;0.731456;0.731359;0.729099;0.728012;0.722614;0.721944;0.717191;0.714220;0.713208;0.711155;0.706876;0.702366;0.696556;0.695140;0.694408;0.686235;0.688103;0.681810;0.681014;0.677685;0.673356;0.671773;0.664698;0.666516;0.661641;0.654860;0.649703;0.645853;0.646133;0.639074;0.634193;0.626276;0.622984;0.621636;0.615519;0.613200;0.613619;0.607097;0.605120;0.594540;0.595815;0.591212;0.586861;0.582782;0.580289;0.577673;0.574515;0.567759;0.562017;0.555363;0.556452;0.556909;0.552980;0.543510;0.547429;0.545717;0.537816;0.536671
0.532308;0.531358;0.537669;0.537658;0.544099;0.545745;0.542753;0.554567;0.551039;0.553572;0.556539;0.557716;0.562042;0.567859;0.567425;0.574039;0.572733;0.576690;0.576965;0.582192;0.589219;0.588206;0.589505;0.594734;0.595093;0.596120;0.598316;0.604095;0.603980;0.603668;0.605331;0.608904;0.611187;0.609009;0.617294;0.611482;0.614378;0.612807;0.613646;0.617916;0.619766;0.620564;0.620167;0.616323;0.613484;0.613115;0.614915;0.611309;0.616717;0.608846;0.612486;0.605802;0.613053;0.609891;0.604467;0.609130;0.602977;0.599367;0.598360;0.595852;0.590723;0.586238;0.594369;0.587032;0.588327;0.583836;0.583369;0.583673;0.577179;0.572139;0.579763;0.572372;0.576358;0.571708;0.569756;0.568972;0.566675;0.569244;0.571418;0.565431;0.565450;0.571410;0.566724;0.568156;0.571961;0.570735;0.567816;0.577235;0.574863;0.575582;0.582275;0.581197;0.581916;0.586530;0.583669;0.585204;0.594561;0.591591;0.597683;0.597458;0.604042;0.598247;0.609279;0.612543;0.620536;0.622213;0.621466;0.630285;0.628956;0.635384;0.639473;0.639198;0.646822;0.651504;0.655627;0.662340;0.674986;0.670132;0.678871;0.679201;0.684762;0.692729;0.695505;0.699511;0.702371;0.708256;0.717148;0.722127;0.726983;0.730796;0.733365;0.739677;0.743404;0.747644;0.755492;0.758957;0.756571;0.768770;0.770737;0.773437;0.781797;0.778155;0.787583;0.788848;0.796931;0.798879;0.800029;0.803280;0.804813;0.806842;0.808680;0.808665;0.805826;0.810268;0.810372;0.810693;0.812856;0.811240;0.806925;0.809931;0.803903;0.805533;0.799808;0.799526;0.794004;0.788721;0.786529;0.781147;0.772336;0.771131;0.768023;0.760363;0.756715;0.748658;0.741245;0.735226;0.730793;0.726330;0.714966;0.709089;0.696879;0.696129;0.688705;0.678878;0.671020;0.661454;0.653305;0.648840;0.646804;0.635171;0.634005;0.622916;0.619455;0.614128;0.606459;0.599038;0.596824;0.584580;0.584053;0.577165
0.514410;0.516140;0.518750;0.513975;0.515299;0.520255;0.517584;0.522385;0.521316;0.526631;0.530206;0.522159;0.528938;0.533534;0.532853;0.535437;0.537564;0.538560;0.542517;0.544067;0.551381;0.550621;0.553800;0.551392;0.558694;0.562483;0.561752;0.564079;0.570191;0.572855;0.576550;0.583358;0.586427;0.596262;0.597575;0.605567;0.606338;0.613074;0.623416;0.621516;0.629219;0.643131;0.644144;0.647030;0.656760;0.660407;0.665736;0.674101;0.682519;0.683858;0.689193;0.698724;0.706740;0.719673;0.725618;0.732451;0.733416;0.747312;0.750647;0.756118;0.759277;0.771293;0.774412;0.787464;0.788321;0.793324;0.798290;0.802987;0.805586;0.811118;0.817745;0.821084;0.825481;0.826061;0.832841;0.830703;0.832780;0.834741;0.831701;0.834950;0.835914;0.829474;0.831041;0.830222;0.826680;0.823554;0.821271;0.821134;0.812042;0.810317;0.802566;0.800110;0.790567;0.787009;0.780836;0.775971;0.769618;0.763210;0.755249;0.749524;0.744157;0.734409;0.729297;0.724422;0.709509;0.708540;0.701653;0.694779;0.685902;0.682596;0.671983;0.672017;0.664450;0.661688;0.654381;0.645190;0.645675;0.642049;0.637447;0.630128;0.631722;0.629113;0.623605;0.623961;0.622321;0.620724;0.619070;0.619359;0.618647;0.615447;0.609874;0.615286;0.619469;0.617127;0.618552;0.615696;0.616552;0.617881;0.617969;0.624252;0.622733;0.625155;0.628418;0.628533;0.634211;0.635384;0.635356;0.639423;0.634722;0.638222;0.642166;0.637563;0.640582;0.644078;0.644892;0.648420;0.643067;0.645884;0.643035;0.643525;0.644874;0.644532;0.645056;0.640974;0.638075;0.638063;0.640757;0.635481;0.631058;0.635666;0.632894;0.627601;0.625563;0.623094;0.620126;0.617232;0.612077;0.605974;0.607516;0.605459;0.599144;0.593799;0.592539;0.588887;0.586646;0.588033;0.582967;0.574122;0.573734;0.570334;0.574391;0.560741;0.568135;0.556553;0.555366;0.554052;0.547929;0.544901;0.542172;0.538923
0.574328;0.580266;0.580037;0.583676;0.591435;0.599871;0.600594;0.610654;0.617097;0.621482;0.630287;0.637147;0.640296;0.643901;0.653307;0.658596;0.664419;0.674279;0.679631;0.684720;0.694967;0.697668;0.705675;0.709734;0.718362;0.724876;0.734435;0.732150;0.743728;0.746458;0.752584;0.754377;0.758730;0.769393;0.768401;0.767313;0.775458;0.772391;0.779614;0.777471;0.781885;0.786142;0.789285;0.779627;0.780711;0.782766;0.780753;0.788477;0.779697;0.781396;0.774542;0.769716;0.769591;0.770200;0.767775;0.761431;0.760845;0.754854;0.756364;0.749603;0.748719;0.734093;0.735835;0.729871;0.724759;0.723136;0.722433;0.715629;0.709471;0.704179;0.701724;0.694397;0.689852;0.688487;0.682270;0.681838;0.669900;0.664845;0.665215;0.658620;0.656679;0.656061;0.648076;0.642993;0.635569;0.635645;0.632880;0.627762;0.624845;0.622275;0.620491;0.614561;0.619647;0.608668;0.615167;0.607569;0.598880;0.601362;0.598618;0.595196;0.592796;0.597203;0.590178;0.589934;0.593793;0.591821;0.586245;0.591606;0.587080;0.587029;0.586792;0.585528;0.583900;0.583751;0.579767;0.582173;0.584110;0.580075;0.585393;0.592265;0.583292;0.584120;0.586850;0.595207;0.594092;0.595230;0.595999;0.595823;0.602096;0.602194;0.600733;0.606824;0.608313;0.607268;0.612023;0.617486;0.614371;0.619367;0.622971;0.623133;0.625687;0.624448;0.633314;0.625921;0.635968;0.634790;0.639999;0.636204;0.641807;0.639109;0.642883;0.646042;0.643337;0.646285;0.643493;0.648561;0.650829;0.648086;0.646523;0.647255;0.649644;0.642878;0.644163;0.644881;0.645579;0.644140;0.638534;0.634137;0.637290;0.632864;0.630331;0.631359;0.630073;0.623815;0.612365;0.618831;0.613403;0.615406;0.610766;0.603315;0.599630;0.595456;0.592017;0.590751;0.583644;0.579343;0.580407;0.577324;0.569242;0.567913;0.564288;0.568565;0.561954;0.563910;0.554707;0.547736;0.550391;0.544176;0.545333;0.537641
0.501032;0.502665;0.502942;0.502575;0.504952;0.508320;0.508381;0.506194;0.499275;0.504579;0.503526;0.505446;0.503635;0.504426;0.504681;0.507427;0.510336;0.508181;0.505528;0.508304;0.508795;0.510713;0.513688;0.510961;0.511968;0.515736;0.514119;0.513281;0.517039;0.514583;0.515332;0.516053;0.516011;0.519044;0.517679;0.520619;0.521266;0.523753;0.523482;0.525206;0.527172;0.527846;0.528990;0.530627;0.536581;0.533795;0.532697;0.536995;0.539553;0.539609;0.548425;0.546738;0.543818;0.548946;0.550207;0.553498;0.555828;0.559899;0.563350;0.564568;0.570947;0.571282;0.571710;0.574757;0.581773;0.583909;0.584043;0.585330;0.585806;0.598884;0.598884;0.597448;0.601563;0.607766;0.609664;0.610355;0.616561;0.617441;0.619573;0.625347;0.629735;0.629659;0.635617;0.634428;0.644678;0.643709;0.649090;0.653734;0.653514;0.659261;0.661081;0.664720;0.671684;0.680513;0.680842;0.687515;0.690701;0.693680;0.696551;0.702506;0.702120;0.708436;0.716400;0.715685;0.725052;0.726794;0.728873;0.736356;0.737635;0.742310;0.745209;0.750463;0.751344;0.760479;0.763328;0.764526;0.766292;0.770722;0.775137;0.777002;0.783322;0.783110;0.786121;0.784312;0.790565;0.788113;0.797316;0.797668;0.795263;0.800631;0.806885;0.803310;0.808423;0.810060;0.809588;0.811877;0.814284;0.820290;0.815165;0.814892;0.818079;0.816409;0.819876;0.815923;0.820282;0.818670;0.816059;0.815640;0.813099;0.818183;0.813541;0.813213;0.815008;0.814826;0.808327;0.803287;0.801439;0.798166;0.794057;0.795085;0.787197;0.786518;0.779235;0.779402;0.775268;0.765189;0.763777;0.754260;0.751593;0.748463;0.738402;0.733802;0.734023;0.725633;0.715837;0.711034;0.700636;0.701125;0.691741;0.682969;0.680341;0.674216;0.665853;0.658455;0.652809;0.649081;0.642431;0.634353;0.627223;0.623293;0.618782;0.610650;0.603693;0.601481;0.593558;0.591129;0.584455;0.578407;0.574571;0.573729
0.522252;0.521013;0.528971;0.527551;0.532056;0.534525;0.534237;0.537942;0.537363;0.540745;0.543255;0.547783;0.550578;0.548147;0.551885;0.555867;0.555920;0.559306;0.564588;0.566965;0.568808;0.573906;0.572863;0.580214;0.582731;0.584451;0.589027;0.594348;0.596668;0.604246;0.600296;0.608601;0.611663;0.619674;0.619206;0.621963;0.630292;0.636315;0.641992;0.641035;0.645748;0.650550;0.654999;0.661344;0.664947;0.674939;0.676544;0.675727;0.685261;0.691239;0.693661;0.699639;0.705446;0.711135;0.712515;0.720368;0.723901;0.729123;0.734043;0.740037;0.746175;0.744819;0.751219;0.757328;0.760864;0.764852;0.766862;0.767739;0.776833;0.772745;0.777509;0.780110;0.781183;0.786031;0.786187;0.783337;0.786382;0.782423;0.784558;0.787357;0.789365;0.782717;0.783983;0.780101;0.777373;0.772205;0.770814;0.770957;0.765099;0.762844;0.760136;0.755704;0.751599;0.747608;0.739548;0.745752;0.732321;0.729701;0.723086;0.720454;0.714234;0.713365;0.704583;0.698892;0.697943;0.692507;0.684876;0.682965;0.676522;0.673413;0.666547;0.666284;0.656635;0.660062;0.655222;0.648273;0.649774;0.646922;0.643454;0.639004;0.643418;0.638812;0.636707;0.633242;0.634105;0.627191;0.629330;0.634698;0.629879;0.632848;0.633697;0.631880;0.634114;0.631010;0.635975;0.636213;0.640284;0.637944;0.639318;0.640554;0.642586;0.640962;0.642220;0.644919;0.648649;0.651810;0.648029;0.652287;0.649670;0.654470;0.657836;0.653704;0.653401;0.652805;0.658276;0.654447;0.659206;0.652425;0.659116;0.654172;0.656106;0.653178;0.650983;0.650366;0.650584;0.647891;0.648408;0.644813;0.643413;0.635102;0.638479;0.636041;0.629482;0.629731;0.626784;0.620424;0.613709;0.615973;0.609574;0.609889;0.610356;0.603161;0.596774;0.591032;0.593233;0.587936;0.586777;0.580107;0.573786;0.572207;0.571073;0.570861;0.567353;0.559482;0.558622;0.553597;0.551578;0.547754;0.544375;0.542946
0.609794;0.619796;0.626183;0.633162;0.641436;0.651461;0.659008;0.666691;0.672132;0.682197;0.693995;0.702854;0.712502;0.722227;0.734640;0.738998;0.754989;0.759857;0.772565;0.781446;0.789782;0.797710;0.807590;0.816266;0.831283;0.836646;0.845331;0.853503;0.859940;0.870582;0.869768;0.873222;0.883342;0.885886;0.890335;0.898251;0.908131;0.905834;0.909222;0.912169;0.911122;0.910658;0.909370;0.908304;0.915273;0.909634;0.908249;0.906512;0.901843;0.894301;0.892706;0.887259;0.878756;0.878101;0.871738;0.863481;0.856912;0.850426;0.845508;0.832365;0.826968;0.820738;0.815264;0.804888;0.796698;0.784197;0.781603;0.775359;0.758797;0.755189;0.749215;0.738800;0.733924;0.726399;0.711649;0.709069;0.701797;0.698851;0.688221;0.685748;0.675648;0.668849;0.663261;0.661535;0.647524;0.650375;0.637863;0.637359;0.627378;0.624474;0.619023;0.616809;0.614814;0.607700;0.603202;0.602886;0.599179;0.593636;0.594481;0.589378;0.589938;0.587252;0.579288;0.580098;0.581048;0.578855;0.577892;0.575271;0.571902;0.573391;0.569208;0.566150;0.567195;0.566975;0.561680;0.563213;0.562383;0.553392;0.555444;0.551043;0.559574;0.554191;0.553610;0.551509;0.548196;0.546645;0.547080;0.544211;0.549773;0.544400;0.540429;0.543084;0.542245;0.537303;0.538458;0.538412;0.538770;0.535012;0.533732;0.533056;0.534366;0.535759;0.533406;0.532968;0.538279;0.531143;0.528145;0.530288;0.532244;0.525161;0.527325;0.525691;0.526440;0.526547;0.518417;0.524821;0.524187;0.520357;0.520722;0.517540;0.518207;0.518035;0.520695;0.525478;0.517550;0.514189;0.518199;0.518053;0.516782;0.513305;0.516676;0.517377;0.513505;0.510066;0.510520;0.512982;0.511363;0.507276;0.510785;0.508859;0.504305;0.507689;0.507066;0.506194;0.508060;0.504329;0.509879;0.506498;0.504982;0.506571;0.506018;0.509490;0.506125;0.507060;0.506546;0.499112;0.502054;0.504666;0.503084;0.504331
0.509743;0.512250;0.508998;0.517340;0.514750;0.514936;0.522355;0.517096;0.526752;0.523752;0.522743;0.520614;0.523548;0.530501;0.531062;0.533099;0.531070;0.536912;0.534842;0.541628;0.536375;0.537909;0.554128;0.547599;0.549831;0.553203;0.550094;0.557445;0.558276;0.566843;0.567405;0.571579;0.572670;0.578455;0.582386;0.580669;0.585379;0.589567;0.594626;0.596511;0.600834;0.605154;0.613498;0.615966;0.619848;0.628400;0.626298;0.634909;0.639983;0.646137;0.648683;0.651413;0.661812;0.664686;0.670397;0.674272;0.679201;0.683704;0.691570;0.694914;0.704415;0.706366;0.717425;0.719815;0.721461;0.732816;0.728655;0.734357;0.739331;0.747217;0.749121;0.752557;0.757019;0.755568;0.763644;0.766941;0.771406;0.770741;0.774034;0.775360;0.777881;0.783118;0.776430;0.782343;0.785922;0.783182;0.784644;0.788120;0.782086;0.786529;0.785670;0.783469;0.778874;0.785867;0.780482;0.783294;0.778259;0.776574;0.772135;0.777666;0.774141;0.770557;0.769706;0.765219;0.763848;0.766942;0.758931;0.757729;0.756447;0.757883;0.751779;0.745710;0.749173;0.741448;0.739251;0.734073;0.736251;0.733271;0.729335;0.730648;0.727244;0.723879;0.714643;0.713488;0.715249;0.710748;0.707548;0.711115;0.707718;0.705524;0.703759;0.697183;0.694905;0.693199;0.690112;0.680797;0.685391;0.681957;0.679664;0.677662;0.670471;0.673364;0.667159;0.667319;0.666305;0.656389;0.655849;0.657045;0.650170;0.646379;0.648677;0.645164;0.641820;0.644475;0.639019;0.632385;0.627663;0.631473;0.627572;0.621151;0.618807;0.613315;0.612223;0.610637;0.610274;0.606519;0.603740;0.601406;0.596054;0.588820;0.590091;0.592298;0.585676;0.580962;0.582303;0.574850;0.575436;0.572542;0.566474;0.565406;0.565287;0.557533;0.556473;0.551930;0.554620;0.549410;0.546519;0.539900;0.539149;0.541785;0.536373;0.531397;0.533542;0.528424;0.526958;0.524971;0.522814;0.517609;0.517403;0.521447
0.550102;0.555253;0.559848;0.556538;0.566320;0.567944;0.568729;0.578131;0.579624;0.585313;0.591390;0.590560;0.601378;0.601758;0.608262;0.615293;0.620147;0.622134;0.624930;0.636830;0.636848;0.639022;0.647565;0.656077;0.663343;0.660508;0.672947;0.673982;0.681419;0.683486;0.695488;0.694948;0.699968;0.702954;0.706523;0.712588;0.713310;0.719497;0.726417;0.727964;0.730395;0.730002;0.737810;0.735601;0.744539;0.741017;0.745845;0.750288;0.751649;0.751176;0.755134;0.756675;0.758509;0.754038;0.756237;0.767992;0.758762;0.763788;0.764914;0.768288;0.759978;0.765200;0.767818;0.762863;0.767507;0.768962;0.766398;0.766082;0.766450;0.766311;0.767549;0.770699;0.764140;0.761401;0.769450;0.761914;0.762711;0.763666;0.759257;0.761062;0.757194;0.753510;0.751897;0.753223;0.752449;0.751839;0.749480;0.743573;0.742619;0.742755;0.740416;0.737487;0.738109;0.730969;0.730645;0.727397;0.725765;0.722757;0.717938;0.714815;0.713432;0.711646;0.712605;0.705808;0.704848;0.704560;0.701313;0.691041;0.692289;0.691366;0.686095;0.687354;0.685187;0.677792;0.677240;0.683322;0.671218;0.669921;0.668918;0.664031;0.661601;0.661181;0.660796;0.656932;0.653400;0.647349;0.643967;0.646572;0.642734;0.640781;0.641126;0.631432;0.638621;0.636973;0.631943;0.630157;0.627620;0.622768;0.620433;0.617968;0.618127;0.622224;0.613887;0.614342;0.608210;0.612316;0.609361;0.604847;0.603527;0.598329;0.604460;0.595713;0.595846;0.594214;0.590497;0.593189;0.586615;0.583206;0.585697;0.583380;0.580993;0.581307;0.573297;0.573350;0.576774;0.570694;0.569906;0.571979;0.571646;0.567390;0.565539;0.561308;0.561535;0.564714;0.560883;0.553682;0.550922;0.557130;0.547674;0.546734;0.544533;0.546108;0.548091;0.541612;0.540478;0.535722;0.540711;0.533969;0.535464;0.535225;0.531468;0.529490;0.526559;0.528180;0.528836;0.519857;0.525086;0.522534;0.524686;0.521427
0.519085;0.516757;0.523573;0.515496;0.522335;0.527008;0.528392;0.529127;0.525322;0.529296;0.533683;0.534294;0.533385;0.536937;0.540631;0.540798;0.537674;0.546105;0.542928;0.548625;0.552066;0.550077;0.550592;0.559394;0.555063;0.557138;0.562314;0.562578;0.568368;0.565557;0.568638;0.571486;0.571686;0.570485;0.570034;0.577905;0.576210;0.575313;0.582968;0.578174;0.576100;0.584032;0.582666;0.578755;0.585105;0.584404;0.584303;0.586768;0.586414;0.587257;0.592533;0.589070;0.589608;0.597551;0.597962;0.593154;0.594086;0.595521;0.598007;0.602703;0.601144;0.601074;0.606709;0.608930;0.611209;0.614602;0.617882;0.619061;0.617181;0.624138;0.629366;0.629187;0.633524;0.637362;0.640222;0.642365;0.648616;0.656157;0.657521;0.667425;0.666254;0.675151;0.683389;0.686950;0.693565;0.697137;0.706318;0.712976;0.716076;0.725753;0.733408;0.739866;0.747158;0.750092;0.761928;0.767692;0.773322;0.777648;0.787497;0.801315;0.803574;0.811142;0.819138;0.829588;0.830234;0.834358;0.843604;0.851603;0.856287;0.853712;0.864608;0.870134;0.871532;0.871597;0.874017;0.877528;0.880363;0.878678;0.879900;0.878222;0.879092;0.881066;0.878054;0.876469;0.877717;0.871382;0.867446;0.863811;0.860867;0.854358;0.850077;0.842991;0.837983;0.826401;0.821439;0.812008;0.807330;0.798981;0.796099;0.784158;0.779173;0.766666;0.759453;0.752479;0.745280;0.734324;0.729343;0.721936;0.710703;0.699079;0.692277;0.687636;0.678396;0.670431;0.661217;0.657669;0.650783;0.643762;0.635525;0.629726;0.619721;0.610705;0.613696;0.601399;0.596919;0.588055;0.589328;0.579150;0.576007;0.577084;0.570381;0.561628;0.555551;0.557275;0.550385;0.547851;0.550038;0.545859;0.535986;0.542734;0.533504;0.532975;0.531097;0.529047;0.523371;0.523779;0.522487;0.523115;0.519388;0.519357;0.519014;0.517126;0.514004;0.515842;0.510979;0.511447;0.512863;0.509472;0.511031;0.510424
0.506316;0.511223;0.511243;0.513225;0.511356;0.512489;0.513516;0.516370;0.511830;0.515250;0.518974;0.517548;0.519647;0.519679;0.520493;0.523154;0.527719;0.521107;0.528223;0.533388;0.530949;0.532762;0.533160;0.536107;0.537537;0.538572;0.539579;0.540818;0.540670;0.547458;0.548214;0.547562;0.548095;0.551893;0.551813;0.557139;0.558519;0.561420;0.565500;0.566551;0.568536;0.570897;0.572914;0.576261;0.587528;0.579791;0.585128;0.589373;0.588445;0.590311;0.597100;0.603684;0.601350;0.606552;0.605129;0.609361;0.615089;0.616983;0.624233;0.626323;0.623341;0.626394;0.633892;0.635227;0.637285;0.637880;0.641028;0.642835;0.647571;0.645607;0.644627;0.649412;0.651357;0.655430;0.653116;0.653769;0.655346;0.654952;0.655049;0.660502;0.661144;0.659007;0.655525;0.659441;0.655879;0.657637;0.656017;0.657590;0.656079;0.652376;0.658082;0.652393;0.652520;0.649041;0.647179;0.650931;0.649542;0.643515;0.645541;0.649881;0.647561;0.645222;0.642102;0.643395;0.642057;0.639832;0.639697;0.637379;0.638426;0.641934;0.641757;0.641935;0.640238;0.639807;0.643539;0.647041;0.646412;0.649712;0.656626;0.656719;0.658247;0.667046;0.668894;0.669570;0.674016;0.676597;0.681866;0.691464;0.692568;0.693791;0.699975;0.706262;0.713804;0.715799;0.721840;0.728910;0.733798;0.735721;0.743141;0.750771;0.755436;0.764603;0.769293;0.771588;0.777007;0.780133;0.787485;0.795819;0.795203;0.798958;0.796288;0.804769;0.812527;0.816659;0.810781;0.810707;0.816462;0.815425;0.818339;0.813342;0.815374;0.815721;0.811656;0.812239;0.806538;0.798994;0.805862;0.798425;0.794519;0.786426;0.780156;0.778841;0.770847;0.768620;0.759155;0.756787;0.748642;0.743196;0.731764;0.730568;0.717033;0.712285;0.703548;0.694030;0.688514;0.682476;0.674511;0.665513;0.660108;0.652470;0.645509;0.638553;0.632378;0.621057;0.618708;0.609114;0.605116;0.603941;0.596524;0.583035
0.512634;0.507412;0.507844;0.506099;0.511314;0.507879;0.513365;0.511315;0.513839;0.513706;0.514258;0.514194;0.515813;0.517246;0.523036;0.519155;0.518686;0.519641;0.520640;0.526102;0.528005;0.525496;0.532336;0.526700;0.533617;0.533062;0.534021;0.531599;0.537075;0.536879;0.542294;0.537735;0.543498;0.543476;0.549875;0.555816;0.549789;0.552904;0.556324;0.559124;0.560940;0.565056;0.564961;0.564920;0.567345;0.569674;0.575118;0.574164;0.577730;0.579928;0.582944;0.586374;0.584696;0.592747;0.593082;0.595268;0.599233;0.601867;0.600486;0.604203;0.602786;0.614667;0.616643;0.615060;0.615034;0.618683;0.617486;0.620920;0.622459;0.624385;0.622067;0.628711;0.628317;0.625307;0.628899;0.631764;0.628875;0.635116;0.632601;0.632384;0.630272;0.629427;0.632332;0.632212;0.631651;0.625869;0.629940;0.624149;0.628631;0.622213;0.617835;0.620248;0.615454;0.613625;0.612978;0.611731;0.614275;0.608305;0.614734;0.615750;0.604517;0.602760;0.603368;0.602110;0.602428;0.604821;0.605505;0.605560;0.604390;0.602294;0.607487;0.608261;0.606881;0.611122;0.611719;0.615596;0.616049;0.620257;0.622244;0.620485;0.631344;0.637746;0.638330;0.643252;0.646892;0.653671;0.656792;0.667021;0.665433;0.682599;0.685354;0.694631;0.699721;0.704607;0.712691;0.719143;0.727969;0.741649;0.744738;0.747674;0.759601;0.763795;0.771462;0.789260;0.787650;0.795540;0.803482;0.804163;0.808818;0.815007;0.822246;0.823736;0.832270;0.831841;0.833260;0.836865;0.839109;0.839305;0.843439;0.841224;0.845902;0.839033;0.834491;0.840764;0.837109;0.832105;0.831351;0.827243;0.819904;0.812648;0.807826;0.804531;0.796168;0.791570;0.783391;0.771561;0.767275;0.761348;0.752003;0.747601;0.735077;0.724640;0.719672;0.709185;0.700233;0.696489;0.686534;0.677758;0.669267;0.660527;0.650153;0.645439;0.635091;0.630249;0.619340;0.616690;0.606479;0.601128;0.589866;0.589272
0.497971;0.506780;0.508289;0.504481;0.508598;0.514959;0.508112;0.505881;0.509622;0.511892;0.513478;0.515318;0.515848;0.513230;0.514684;0.521224;0.517294;0.523796;0.521748;0.519184;0.524645;0.525102;0.526895;0.526083;0.527508;0.529924;0.536019;0.532803;0.536773;0.534324;0.540769;0.542108;0.545603;0.546945;0.552345;0.556938;0.556828;0.557228;0.565321;0.560952;0.571711;0.567711;0.579605;0.576412;0.582140;0.585916;0.586145;0.598620;0.596612;0.604326;0.608817;0.607354;0.619580;0.618034;0.624223;0.631183;0.635745;0.638548;0.644658;0.649372;0.651007;0.661501;0.663836;0.674815;0.677806;0.680578;0.688093;0.690744;0.694374;0.701330;0.708363;0.711413;0.718673;0.722398;0.725806;0.732375;0.737549;0.742121;0.745329;0.748880;0.755975;0.759869;0.762130;0.762429;0.767991;0.773754;0.779160;0.785412;0.788876;0.786751;0.796633;0.798782;0.797575;0.805330;0.811522;0.809848;0.810469;0.814105;0.819563;0.817976;0.823991;0.830064;0.834430;0.830120;0.828781;0.833644;0.835690;0.834010;0.837200;0.841572;0.839297;0.838885;0.837391;0.836538;0.835974;0.839257;0.833301;0.834294;0.829142;0.830051;0.824351;0.825730;0.820595;0.819691;0.813886;0.815948;0.807421;0.800394;0.796716;0.791812;0.787974;0.782781;0.777886;0.772928;0.766444;0.761367;0.755080;0.750576;0.743394;0.732712;0.730086;0.724402;0.713547;0.712054;0.702926;0.697572;0.693807;0.684688;0.674405;0.668267;0.668100;0.663067;0.655181;0.648155;0.646609;0.633308;0.633253;0.627052;0.621566;0.617801;0.613837;0.601992;0.600039;0.600184;0.593551;0.590999;0.582156;0.582503;0.575949;0.569816;0.561688;0.566262;0.562272;0.555721;0.556011;0.553784;0.552552;0.548239;0.548905;0.543217;0.540216;0.537092;0.536667;0.532108;0.533332;0.529476;0.528216;0.526308;0.523049;0.524286;0.525687;0.520619;0.517945;0.516492;0.518332;0.512377;0.517266;0.514484;0.512658;0.516305
0.530860;0.535401;0.542014;0.539809;0.541518;0.543872;0.547292;0.548791;0.554750;0.557372;0.561360;0.565675;0.567701;0.569912;0.568551;0.577351;0.580721;0.584386;0.586280;0.583848;0.591246;0.589682;0.599789;0.597783;0.596754;0.601541;0.607800;0.609294;0.614339;0.614785;0.617964;0.616545;0.619872;0.622194;0.625595;0.626836;0.623614;0.623966;0.626307;0.628529;0.626525;0.629605;0.625266;0.626606;0.628095;0.625832;0.629769;0.622809;0.621053;0.621519;0.622996;0.625069;0.614892;0.618116;0.614338;0.609352;0.608991;0.604660;0.608015;0.597916;0.595694;0.603157;0.596721;0.593723;0.591647;0.586101;0.592191;0.583986;0.581754;0.586159;0.584775;0.580475;0.579077;0.579950;0.576542;0.571609;0.576095;0.568607;0.573134;0.569885;0.571469;0.570184;0.568246;0.572450;0.567330;0.562996;0.570436;0.569030;0.574735;0.575688;0.581608;0.578955;0.575253;0.579906;0.584700;0.583124;0.585620;0.586154;0.593419;0.593625;0.593933;0.595152;0.596489;0.601714;0.605591;0.610013;0.612238;0.610908;0.618034;0.625520;0.627456;0.626267;0.634903;0.639160;0.640816;0.647742;0.649704;0.654249;0.654728;0.664516;0.664635;0.673052;0.677313;0.688178;0.684862;0.693321;0.699784;0.702817;0.707877;0.716330;0.715374;0.718852;0.720757;0.733385;0.742558;0.743624;0.751111;0.753661;0.755666;0.760889;0.762417;0.768888;0.776635;0.778174;0.777170;0.786953;0.793743;0.794473;0.792346;0.794562;0.800783;0.800582;0.803958;0.807467;0.801270;0.805102;0.801232;0.803836;0.805638;0.795258;0.799588;0.799167;0.794162;0.793435;0.789029;0.778996;0.781905;0.779155;0.772890;0.765014;0.760000;0.759516;0.750337;0.746995;0.738095;0.731776;0.722090;0.718868;0.712088;0.706455;0.696531;0.692266;0.685476;0.679788;0.671112;0.662622;0.653206;0.649117;0.636700;0.633896;0.624972;0.622488;0.614415;0.611469;0.606276;0.600673;0.589280;0.583122;0.580171;0.574494
0.562459;0.573424;0.579571;0.587430;0.584519;0.592523;0.597961;0.603711;0.605474;0.612493;0.623906;0.624390;0.632301;0.641067;0.640713;0.652164;0.655253;0.661824;0.669301;0.678756;0.683643;0.683047;0.694702;0.696766;0.705120;0.703152;0.714626;0.716785;0.723498;0.725517;0.732305;0.740479;0.739900;0.747695;0.744696;0.750943;0.751540;0.754444;0.758956;0.753611;0.759279;0.761295;0.758858;0.761701;0.759958;0.756813;0.756717;0.758033;0.753393;0.757304;0.749629;0.749701;0.744145;0.741937;0.738933;0.732127;0.733635;0.725964;0.722147;0.725020;0.719945;0.712313;0.707581;0.701919;0.699687;0.696095;0.692803;0.685255;0.683173;0.679633;0.669705;0.670498;0.667526;0.667027;0.659660;0.655328;0.653210;0.650937;0.646405;0.639296;0.641943;0.638647;0.640736;0.639054;0.635184;0.632048;0.630027;0.626542;0.631705;0.623599;0.633198;0.630822;0.629479;0.629625;0.628112;0.626661;0.628199;0.633033;0.631946;0.629731;0.635235;0.629435;0.629067;0.635133;0.638247;0.637873;0.637730;0.633537;0.634924;0.643809;0.639347;0.642444;0.644325;0.644988;0.648531;0.650201;0.649238;0.649493;0.653279;0.651182;0.656360;0.652589;0.657034;0.655576;0.652796;0.654878;0.657836;0.659811;0.657353;0.659398;0.661127;0.660720;0.665682;0.663900;0.667257;0.663479;0.660666;0.660303;0.660249;0.661170;0.663747;0.661732;0.661023;0.664803;0.657726;0.656602;0.656561;0.655723;0.661244;0.660183;0.658318;0.651421;0.651941;0.651969;0.650471;0.654189;0.647907;0.646531;0.643675;0.644337;0.635526;0.635758;0.632810;0.628519;0.638064;0.629696;0.626020;0.627272;0.628261;0.618675;0.616792;0.616466;0.610117;0.605827;0.604268;0.599454;0.598569;0.596346;0.595353;0.593969;0.586999;0.586687;0.577467;0.578664;0.576659;0.573008;0.569007;0.566212;0.566313;0.560108;0.556928;0.551946;0.554473;0.552047;0.548981;0.546785;0.540743;0.539153;0.538892;0.534521
0.531377;0.536207;0.538563;0.537055;0.541651;0.543607;0.548572;0.550786;0.550492;0.555472;0.558088;0.561437;0.569021;0.569262;0.571492;0.574514;0.571975;0.577843;0.580818;0.584226;0.592460;0.592428;0.596154;0.599779;0.599985;0.601528;0.608137;0.607363;0.608810;0.615083;0.620244;0.616653;0.623914;0.621374;0.625120;0.632956;0.630777;0.640517;0.633548;0.637881;0.638694;0.639552;0.641311;0.641761;0.642289;0.645090;0.646543;0.652391;0.646863;0.650586;0.647978;0.650832;0.652130;0.654498;0.651313;0.654243;0.651777;0.650976;0.650717;0.648496;0.647970;0.646531;0.650302;0.651447;0.646873;0.646347;0.643567;0.645306;0.645774;0.641984;0.641056;0.636275;0.640157;0.642336;0.639227;0.637193;0.636126;0.636947;0.635212;0.633102;0.628737;0.625939;0.628687;0.626450;0.623642;0.620666;0.627597;0.620246;0.623938;0.616225;0.616273;0.614175;0.614037;0.609088;0.614043;0.615376;0.609846;0.610492;0.610498;0.612476;0.608969;0.610524;0.609674;0.611288;0.609325;0.607105;0.613313;0.611805;0.610448;0.615374;0.606221;0.615902;0.612737;0.618907;0.617033;0.621913;0.618397;0.626078;0.626916;0.630537;0.637056;0.641104;0.638917;0.639605;0.646722;0.651284;0.656517;0.660429;0.663533;0.665913;0.677571;0.677912;0.675240;0.681773;0.690883;0.699673;0.702664;0.701378;0.710315;0.718987;0.720565;0.725042;0.728725;0.731138;0.739236;0.742085;0.743121;0.750635;0.752736;0.761372;0.758366;0.765829;0.759275;0.768321;0.764990;0.768544;0.769410;0.773068;0.770568;0.765470;0.767481;0.763685;0.763259;0.757462;0.758714;0.753588;0.758008;0.749343;0.747610;0.741718;0.736610;0.731083;0.725642;0.719926;0.717097;0.712650;0.704422;0.703383;0.686688;0.687073;0.682168;0.677158;0.671755;0.663797;0.653062;0.648221;0.645407;0.639166;0.631013;0.622000;0.619845;0.611847;0.606739;0.601188;0.595125;0.592051;0.580508;0.580167;0.573463;0.568471
0.513959;0.515889;0.514751;0.521225;0.524657;0.522216;0.524157;0.531067;0.528149;0.531771;0.533171;0.535306;0.537767;0.540571;0.542734;0.544541;0.548632;0.551955;0.549750;0.556844;0.560139;0.561271;0.565703;0.569564;0.569284;0.577067;0.581245;0.583711;0.587439;0.592196;0.598893;0.604713;0.602600;0.612685;0.617176;0.624101;0.628293;0.637600;0.637201;0.646935;0.653953;0.661551;0.664351;0.672224;0.681684;0.689570;0.693626;0.699430;0.710196;0.718653;0.724601;0.733066;0.743248;0.753196;0.759779;0.766739;0.780023;0.784717;0.789685;0.798780;0.812114;0.811703;0.816260;0.829024;0.834440;0.838343;0.840672;0.847752;0.855064;0.860198;0.864267;0.873640;0.871521;0.876023;0.874269;0.873836;0.881472;0.885166;0.886572;0.876994;0.880662;0.879893;0.879386;0.880730;0.872926;0.868799;0.867576;0.859985;0.859114;0.852215;0.847663;0.842849;0.832914;0.821307;0.818219;0.807654;0.804866;0.800161;0.787800;0.787016;0.772348;0.765437;0.756249;0.751513;0.739522;0.729610;0.721632;0.718268;0.708361;0.702174;0.691338;0.681208;0.675623;0.665906;0.669175;0.656394;0.646878;0.638000;0.636802;0.632068;0.629342;0.625353;0.619231;0.617215;0.611418;0.608058;0.603551;0.596355;0.594384;0.590485;0.588114;0.590577;0.589580;0.587001;0.588468;0.582079;0.582990;0.578807;0.579948;0.579773;0.575425;0.579636;0.576765;0.578855;0.577089;0.576962;0.577296;0.580577;0.581962;0.576395;0.576130;0.578847;0.579177;0.575998;0.577269;0.584490;0.584736;0.573353;0.575568;0.578014;0.577355;0.582146;0.576975;0.573157;0.571381;0.575712;0.568886;0.569998;0.572191;0.566514;0.568592;0.566182;0.564359;0.563323;0.561775;0.558706;0.555815;0.559615;0.548706;0.552763;0.548053;0.549361;0.546979;0.545869;0.546347;0.540821;0.540624;0.531959;0.534150;0.533213;0.535759;0.535157;0.530356;0.529274;0.527587;0.526379;0.521513;0.521872;0.520326;0.518875
0.522489;0.523174;0.522280;0.529490;0.528675;0.527217;0.524202;0.528291;0.534686;0.537134;0.537356;0.540912;0.544501;0.545257;0.544014;0.548898;0.547839;0.555464;0.556526;0.560996;0.564178;0.560903;0.567367;0.567724;0.571234;0.575365;0.573132;0.579980;0.577543;0.583078;0.586899;0.589365;0.589444;0.595591;0.595803;0.597157;0.594995;0.601458;0.606177;0.610322;0.609688;0.611403;0.614812;0.617069;0.617037;0.620171;0.621926;0.616466;0.622396;0.625253;0.630561;0.629993;0.629383;0.635630;0.635475;0.630927;0.637467;0.646672;0.641343;0.645162;0.648905;0.647607;0.653219;0.647619;0.650566;0.657771;0.653791;0.658556;0.662769;0.664022;0.667411;0.671833;0.671099;0.672639;0.676229;0.671710;0.677650;0.678276;0.682266;0.686609;0.688545;0.690810;0.692472;0.696271;0.696931;0.698550;0.700400;0.704895;0.710381;0.708817;0.715276;0.718433;0.717372;0.721524;0.726041;0.727285;0.726705;0.735937;0.730562;0.734844;0.736183;0.739015;0.744573;0.742540;0.746535;0.755952;0.750713;0.753471;0.750735;0.757302;0.756940;0.761699;0.757407;0.763722;0.764300;0.762882;0.763345;0.759526;0.764968;0.763220;0.761488;0.759227;0.761704;0.758623;0.756839;0.758473;0.756923;0.757105;0.750522;0.755503;0.747537;0.749616;0.741153;0.744204;0.741141;0.736678;0.737132;0.736204;0.726905;0.730288;0.729390;0.719596;0.717241;0.713256;0.711954;0.705423;0.702150;0.697849;0.695886;0.692384;0.687486;0.686848;0.682885;0.684077;0.675816;0.670916;0.673631;0.662652;0.655038;0.654576;0.653971;0.646760;0.645862;0.638444;0.634257;0.635910;0.630864;0.618766;0.620857;0.612736;0.611355;0.610597;0.605137;0.604638;0.597081;0.595255;0.583626;0.580416;0.586287;0.576990;0.574886;0.573372;0.569164;0.563198;0.562418;0.556941;0.553798;0.548766;0.546182;0.544880;0.543086;0.544113;0.541984;0.533342;0.536521;0.530411;0.527842;0.521797;0.527614;0.523347
0.572389;0.580999;0.581509;0.589157;0.594347;0.598027;0.607181;0.617112;0.621335;0.625187;0.632023;0.639401;0.651687;0.656247;0.661921;0.664619;0.672025;0.675017;0.687681;0.691992;0.698980;0.704152;0.713217;0.721455;0.726756;0.729517;0.738095;0.742132;0.754105;0.756938;0.760469;0.765298;0.772001;0.773787;0.776152;0.779396;0.783921;0.792590;0.786813;0.792853;0.792962;0.797176;0.796019;0.798072;0.798931;0.797914;0.799357;0.794749;0.794018;0.793310;0.790847;0.788427;0.785858;0.788852;0.783861;0.779411;0.771872;0.771912;0.773191;0.763757;0.765416;0.759558;0.753639;0.754458;0.746340;0.742044;0.736693;0.731497;0.730458;0.729743;0.720502;0.717985;0.709901;0.703032;0.698925;0.696405;0.697625;0.691263;0.689651;0.684925;0.679618;0.673105;0.671720;0.667119;0.667452;0.664164;0.662499;0.657418;0.652072;0.648292;0.646008;0.641564;0.636599;0.639354;0.632847;0.627235;0.629853;0.626785;0.625810;0.620961;0.618586;0.624136;0.616714;0.613998;0.617872;0.609274;0.613109;0.605267;0.613981;0.605438;0.604480;0.608059;0.599488;0.607625;0.603563;0.601867;0.599983;0.602351;0.601561;0.597221;0.602349;0.602241;0.598625;0.602643;0.597974;0.598983;0.602912;0.601149;0.596877;0.599206;0.597824;0.601531;0.602163;0.598940;0.604180;0.601932;0.604460;0.600241;0.606926;0.603415;0.604790;0.602981;0.605347;0.606984;0.603962;0.604713;0.610152;0.602554;0.608728;0.602894;0.604558;0.607513;0.606446;0.605415;0.605580;0.605336;0.606847;0.607142;0.603683;0.598673;0.601355;0.598733;0.599140;0.595904;0.596198;0.596650;0.592868;0.589460;0.583313;0.586401;0.584499;0.581118;0.574707;0.579724;0.576057;0.574830;0.575586;0.564348;0.569653;0.565530;0.563591;0.557475;0.559589;0.558043;0.549792;0.548945;0.548033;0.543797;0.545753;0.540577;0.537113;0.537820;0.531845;0.529236;0.529433;0.530892;0.530567;0.524316;0.523003;0.518546
0.553763;0.555880;0.554878;0.563689;0.569257;0.574561;0.569519;0.581055;0.582155;0.592410;0.595563;0.596421;0.605072;0.611469;0.610682;0.619308;0.622039;0.630275;0.629743;0.637910;0.642516;0.644136;0.649838;0.654823;0.658887;0.665716;0.666423;0.671864;0.678976;0.676937;0.687093;0.686590;0.691163;0.699740;0.698033;0.703352;0.708045;0.708748;0.707477;0.715027;0.717492;0.715924;0.719772;0.717994;0.720197;0.723847;0.726874;0.719998;0.721711;0.722513;0.720162;0.722122;0.720504;0.720114;0.719769;0.720420;0.715569;0.717589;0.718148;0.714024;0.715960;0.712882;0.714017;0.713700;0.708242;0.709642;0.704084;0.704740;0.700478;0.698259;0.697340;0.694489;0.690558;0.694409;0.693162;0.693491;0.685542;0.687336;0.688453;0.684307;0.682863;0.681173;0.682680;0.680274;0.680445;0.677827;0.678575;0.673759;0.676316;0.676404;0.674077;0.677005;0.673471;0.675010;0.673709;0.674733;0.670062;0.667771;0.667323;0.670796;0.669805;0.668045;0.666564;0.671286;0.670315;0.667471;0.670861;0.667892;0.672202;0.670762;0.667988;0.672886;0.668367;0.667121;0.665290;0.673133;0.669415;0.666497;0.670740;0.670087;0.669629;0.671497;0.669109;0.666165;0.661563;0.670385;0.671216;0.670667;0.662762;0.667014;0.671789;0.667451;0.673602;0.670986;0.673289;0.665986;0.664478;0.661628;0.667447;0.662104;0.665861;0.663140;0.661137;0.661793;0.664442;0.663407;0.659439;0.659315;0.657749;0.662314;0.656830;0.654025;0.653073;0.645756;0.649661;0.646365;0.646463;0.648637;0.645785;0.639475;0.637738;0.634645;0.634142;0.627560;0.632188;0.627847;0.626110;0.622536;0.619714;0.616005;0.616790;0.612572;0.610202;0.605857;0.606636;0.603427;0.598971;0.594728;0.585291;0.586957;0.584235;0.583864;0.576882;0.576688;0.570896;0.569149;0.571666;0.565937;0.557733;0.558239;0.558438;0.552846;0.551940;0.549071;0.544863;0.544495;0.543704;0.540941;0.537038;0.537898
0.503318;0.505975;0.503361;0.505059;0.505786;0.502342;0.504259;0.505335;0.501567;0.505025;0.500833;0.500406;0.506014;0.504943;0.506909;0.500247;0.506922;0.505265;0.509134;0.507921;0.511657;0.515946;0.518313;0.515390;0.516052;0.515592;0.519495;0.520799;0.523193;0.528926;0.530966;0.529016;0.532167;0.532079;0.534162;0.543428;0.540013;0.542725;0.551252;0.553576;0.552874;0.559276;0.558960;0.565464;0.569461;0.578583;0.574335;0.576642;0.587457;0.592985;0.595898;0.598308;0.605421;0.614817;0.617018;0.618188;0.620363;0.627545;0.633323;0.640439;0.640467;0.645214;0.649449;0.657499;0.665870;0.661955;0.668242;0.673995;0.678786;0.682424;0.680897;0.685333;0.692290;0.690624;0.694420;0.695036;0.694197;0.696443;0.696207;0.709578;0.701953;0.706467;0.707361;0.706739;0.705755;0.703974;0.701335;0.705160;0.710551;0.701403;0.699541;0.702348;0.699762;0.698793;0.701188;0.697888;0.694782;0.694257;0.689757;0.692724;0.684675;0.683196;0.681401;0.683607;0.683006;0.680663;0.673574;0.676653;0.676527;0.676627;0.673407;0.669864;0.667000;0.667879;0.666880;0.673541;0.671871;0.675400;0.676153;0.676525;0.675534;0.681190;0.681090;0.678603;0.683081;0.683407;0.687644;0.690841;0.695820;0.700591;0.704650;0.706867;0.709040;0.712702;0.716348;0.721743;0.731772;0.723694;0.735974;0.736910;0.737054;0.742782;0.749526;0.753246;0.754458;0.763881;0.767826;0.768236;0.767865;0.771227;0.776470;0.784312;0.778914;0.776793;0.781453;0.783857;0.782757;0.786107;0.786779;0.780532;0.781920;0.780395;0.778817;0.773856;0.773042;0.769754;0.764703;0.761882;0.762598;0.753543;0.751097;0.748961;0.742909;0.735444;0.727174;0.727178;0.712917;0.710049;0.703149;0.701952;0.688168;0.687625;0.675248;0.672195;0.665687;0.659499;0.653208;0.646226;0.634326;0.635854;0.627783;0.617912;0.618613;0.607266;0.604705;0.595551;0.594896;0.592412;0.580494;0.582115
0.522530;0.523589;0.527944;0.528497;0.529641;0.530823;0.533923;0.538549;0.542101;0.542203;0.548106;0.549782;0.549432;0.556788;0.555254;0.558708;0.564760;0.565256;0.567997;0.575610;0.575866;0.578242;0.582819;0.590568;0.590309;0.598537;0.604796;0.608948;0.608455;0.615694;0.623049;0.622804;0.636828;0.637609;0.644451;0.646924;0.650968;0.662605;0.667587;0.672519;0.679356;0.681224;0.691870;0.696715;0.705605;0.713967;0.719686;0.730395;0.731128;0.744549;0.753501;0.757040;0.761604;0.769325;0.776766;0.785830;0.792169;0.798617;0.804336;0.813082;0.819744;0.828502;0.833696;0.838857;0.843106;0.852776;0.852821;0.855960;0.862449;0.867737;0.876305;0.882066;0.879227;0.884449;0.883739;0.885760;0.886269;0.892107;0.889050;0.887138;0.889822;0.882553;0.881386;0.877356;0.877751;0.875690;0.870608;0.863429;0.869112;0.855412;0.853651;0.847556;0.843157;0.832782;0.825733;0.821928;0.809420;0.804765;0.800500;0.789492;0.780624;0.776317;0.764634;0.756894;0.749131;0.740573;0.731025;0.723604;0.717151;0.707520;0.705539;0.693280;0.685667;0.678165;0.674604;0.665041;0.662992;0.658049;0.653191;0.646424;0.641058;0.629667;0.625747;0.626023;0.618425;0.613823;0.610800;0.602953;0.601429;0.601089;0.598235;0.593026;0.592974;0.587712;0.582072;0.587737;0.576981;0.581201;0.582140;0.578017;0.571561;0.574620;0.576152;0.572463;0.569684;0.569356;0.572194;0.567270;0.564687;0.561861;0.566675;0.565991;0.567544;0.562651;0.566781;0.564117;0.563270;0.556182;0.563429;0.561699;0.558917;0.563190;0.560424;0.557237;0.554282;0.560692;0.553136;0.554624;0.555578;0.555472;0.548743;0.550902;0.549507;0.551416;0.552277;0.548538;0.543439;0.543877;0.546430;0.542788;0.543466;0.541355;0.540060;0.537251;0.534050;0.536077;0.535140;0.531448;0.532711;0.529676;0.535776;0.531036;0.530076;0.529404;0.528163;0.523931;0.528935;0.523885;0.520234;0.523303
0.536802;0.544179;0.544031;0.548545;0.545930;0.550684;0.551603;0.560707;0.561451;0.563215;0.567413;0.570112;0.578578;0.578603;0.583010;0.590978;0.597566;0.593834;0.599417;0.605962;0.610515;0.614573;0.622162;0.622071;0.627696;0.630931;0.637074;0.640495;0.642990;0.647896;0.657171;0.663072;0.666223;0.672899;0.679898;0.680805;0.682939;0.687229;0.690682;0.702036;0.704557;0.705876;0.711322;0.714195;0.721839;0.725342;0.727009;0.737909;0.740671;0.737377;0.749928;0.750807;0.754972;0.758673;0.759333;0.766069;0.771261;0.777173;0.779916;0.781653;0.777616;0.787237;0.787413;0.796284;0.794104;0.796619;0.804730;0.802448;0.805113;0.801452;0.808663;0.805339;0.806895;0.810360;0.805782;0.808527;0.806987;0.804079;0.806218;0.800594;0.804695;0.800321;0.799411;0.790290;0.794200;0.784612;0.787665;0.784089;0.782468;0.769949;0.768294;0.770024;0.764091;0.759439;0.748365;0.745148;0.742663;0.736634;0.729805;0.722669;0.720797;0.709752;0.705588;0.702150;0.697163;0.691641;0.686780;0.683660;0.671567;0.673018;0.666192;0.654964;0.658573;0.653301;0.643802;0.646773;0.636285;0.636013;0.631038;0.625606;0.623834;0.621255;0.621175;0.614778;0.615334;0.609158;0.607154;0.607323;0.596713;0.601544;0.603396;0.597970;0.602365;0.597363;0.595866;0.595293;0.593155;0.592211;0.589616;0.592501;0.589572;0.591124;0.594855;0.590308;0.594314;0.592063;0.590624;0.591501;0.587687;0.590579;0.590490;0.592826;0.592719;0.586241;0.588659;0.589102;0.588327;0.590710;0.582858;0.581993;0.582583;0.580065;0.585639;0.582179;0.581263;0.576517;0.577164;0.573375;0.578435;0.569313;0.574530;0.565578;0.568756;0.566729;0.567358;0.563669;0.562010;0.560311;0.554062;0.554701;0.551898;0.552632;0.549051;0.549488;0.545855;0.539764;0.539451;0.537979;0.537954;0.532451;0.534282;0.532295;0.532610;0.529749;0.525719;0.521911;0.526998;0.524278;0.516124;0.513477
0.504115;0.510039;0.507657;0.511543;0.504495;0.509988;0.510933;0.512381;0.508531;0.516038;0.513277;0.520327;0.517085;0.515562;0.524363;0.520313;0.520781;0.526827;0.527406;0.527735;0.528435;0.529582;0.530056;0.534091;0.533023;0.536865;0.537190;0.540991;0.542465;0.544270;0.544303;0.541889;0.547207;0.554129;0.555548;0.561987;0.557470;0.563641;0.562441;0.566980;0.571437;0.575600;0.575205;0.578542;0.582334;0.589375;0.592326;0.592357;0.594816;0.601392;0.606872;0.606044;0.610616;0.616586;0.617862;0.623102;0.622525;0.630946;0.636039;0.636399;0.637700;0.640122;0.646225;0.651977;0.656187;0.661181;0.656514;0.662035;0.669732;0.671018;0.676514;0.679323;0.683418;0.678201;0.689004;0.690068;0.689456;0.691390;0.695075;0.692192;0.699540;0.701597;0.701115;0.707118;0.702622;0.704781;0.706740;0.707013;0.704660;0.704843;0.708737;0.710764;0.709146;0.705802;0.707442;0.710492;0.706325;0.706060;0.709551;0.705910;0.705851;0.705669;0.704688;0.706924;0.707344;0.706931;0.706381;0.710995;0.712205;0.707186;0.707514;0.713127;0.708605;0.711405;0.712910;0.709901;0.709478;0.715096;0.711854;0.717733;0.711176;0.718133;0.714228;0.720395;0.720884;0.722158;0.727729;0.719806;0.731029;0.730943;0.733883;0.734009;0.734514;0.736112;0.736501;0.740486;0.740652;0.744414;0.747719;0.746346;0.744330;0.749572;0.750802;0.751426;0.755469;0.750307;0.757923;0.759260;0.755413;0.758881;0.759215;0.760007;0.756807;0.753340;0.756513;0.753657;0.752755;0.757596;0.750789;0.753126;0.754244;0.746924;0.746063;0.741899;0.739673;0.735103;0.732132;0.730078;0.721894;0.717637;0.718219;0.712580;0.706767;0.700998;0.695097;0.696553;0.687450;0.679469;0.678658;0.664945;0.664891;0.659472;0.659594;0.646050;0.642061;0.634080;0.632935;0.628390;0.621604;0.611561;0.607690;0.607865;0.597888;0.592714;0.589152;0.586729;0.581891;0.575571;0.570226;0.571736
0.570955;0.578396;0.581716;0.589259;0.591152;0.602442;0.600209;0.608045;0.606904;0.618962;0.630657;0.636400;0.642135;0.644164;0.652796;0.659298;0.662984;0.675064;0.683643;0.690080;0.694178;0.703638;0.709541;0.718087;0.721770;0.733483;0.736501;0.741347;0.747826;0.751651;0.756269;0.761010;0.765349;0.776249;0.779409;0.785584;0.788383;0.792018;0.795361;0.800231;0.803333;0.804245;0.804549;0.809755;0.809993;0.812516;0.813600;0.817148;0.808835;0.819607;0.810032;0.815886;0.812688;0.813079;0.821109;0.817297;0.814445;0.817551;0.807732;0.811328;0.810279;0.806190;0.801564;0.802253;0.802965;0.796697;0.792639;0.793180;0.789806;0.785499;0.789097;0.779640;0.781016;0.778641;0.771912;0.766419;0.763385;0.766437;0.756790;0.749730;0.752058;0.749513;0.742716;0.738447;0.737212;0.736008;0.732893;0.729749;0.724551;0.722845;0.716886;0.718647;0.708798;0.703868;0.700020;0.697309;0.694979;0.687823;0.687657;0.685886;0.679651;0.675020;0.677178;0.663446;0.664493;0.665232;0.658733;0.657085;0.648171;0.646352;0.646324;0.644121;0.638318;0.637215;0.632477;0.625800;0.627853;0.624621;0.622726;0.619113;0.613936;0.614598;0.609568;0.606457;0.602138;0.601456;0.598827;0.594724;0.597934;0.593382;0.590043;0.585931;0.586925;0.582990;0.571860;0.579864;0.575615;0.572277;0.570108;0.568644;0.565886;0.563568;0.561903;0.557665;0.560254;0.554024;0.555608;0.547997;0.553322;0.548040;0.550279;0.549491;0.544970;0.545752;0.546206;0.545615;0.542116;0.541561;0.539171;0.534848;0.537648;0.535356;0.531820;0.532377;0.525761;0.528994;0.528245;0.534109;0.525508;0.525505;0.530975;0.522416;0.524355;0.522029;0.520452;0.522036;0.519250;0.524682;0.519585;0.520156;0.516528;0.513942;0.515792;0.514961;0.516642;0.515544;0.510636;0.516032;0.515907;0.509430;0.508542;0.511905;0.504703;0.513203;0.508494;0.507503;0.506192;0.507632;0.507388;0.505044
0.512244;0.513598;0.519723;0.517227;0.516764;0.520509;0.519241;0.524736;0.519734;0.525053;0.526631;0.525810;0.533153;0.529493;0.530595;0.535630;0.538673;0.536784;0.542561;0.547231;0.548931;0.549667;0.554617;0.557459;0.556260;0.563389;0.563610;0.570451;0.570002;0.577237;0.571624;0.583758;0.586122;0.589928;0.595495;0.595854;0.600324;0.608632;0.610856;0.616333;0.622714;0.623231;0.637568;0.638338;0.640309;0.646281;0.648909;0.663741;0.668104;0.672028;0.675733;0.685502;0.683287;0.698780;0.704105;0.711649;0.714222;0.719928;0.721495;0.728929;0.735340;0.742363;0.749261;0.748856;0.758052;0.764385;0.764981;0.767253;0.776287;0.777665;0.782106;0.780114;0.788113;0.790717;0.791691;0.791216;0.798838;0.795524;0.793192;0.796991;0.794790;0.793359;0.789566;0.794346;0.785913;0.786179;0.786221;0.780414;0.777755;0.775677;0.769391;0.762577;0.759180;0.752985;0.749187;0.740084;0.740979;0.736459;0.726430;0.719183;0.715860;0.708597;0.703952;0.697207;0.696247;0.688937;0.683895;0.677810;0.664670;0.666036;0.661248;0.652840;0.649424;0.646821;0.646123;0.642954;0.639572;0.635881;0.628396;0.632059;0.626302;0.625411;0.628547;0.621999;0.625813;0.624973;0.622338;0.620497;0.622801;0.621237;0.623951;0.626790;0.624136;0.629707;0.627234;0.633210;0.629879;0.633319;0.635625;0.636841;0.638097;0.641321;0.645063;0.653887;0.653555;0.647888;0.655979;0.658964;0.655884;0.662645;0.663101;0.665046;0.666799;0.660435;0.669109;0.667782;0.665635;0.672272;0.669226;0.667980;0.672140;0.669011;0.666807;0.667629;0.668582;0.664899;0.665247;0.660138;0.657834;0.654452;0.650256;0.653207;0.649232;0.645837;0.635572;0.634831;0.630390;0.632134;0.624523;0.620583;0.617749;0.610247;0.613152;0.607235;0.599671;0.596760;0.591534;0.588377;0.579331;0.576042;0.574070;0.570115;0.567272;0.562613;0.562518;0.556370;0.555372;0.545555;0.548829;0.538511
0.522943;0.527615;0.529866;0.530990;0.526126;0.533108;0.536807;0.538505;0.534405;0.536869;0.544790;0.545342;0.541634;0.549121;0.549112;0.554840;0.554025;0.555173;0.560053;0.559203;0.559515;0.563790;0.564287;0.567203;0.572388;0.568497;0.579372;0.575495;0.575709;0.576943;0.580346;0.587060;0.592151;0.591972;0.587174;0.594160;0.591986;0.596287;0.596663;0.598093;0.596450;0.595404;0.598656;0.599723;0.596128;0.601394;0.602977;0.604733;0.603095;0.604599;0.604826;0.604357;0.606798;0.602102;0.604574;0.601818;0.606909;0.606914;0.605039;0.605886;0.602874;0.603527;0.602924;0.604038;0.602626;0.608885;0.603491;0.603244;0.605925;0.602652;0.602959;0.606036;0.607030;0.603155;0.602395;0.603856;0.601250;0.606079;0.604137;0.605590;0.598556;0.606166;0.599541;0.605296;0.604653;0.603586;0.611847;0.607631;0.606849;0.605932;0.611707;0.613164;0.610562;0.614837;0.612499;0.613981;0.613187;0.616801;0.617137;0.621869;0.623118;0.620937;0.627230;0.626823;0.628530;0.628345;0.631428;0.635575;0.641460;0.638674;0.642202;0.643928;0.644355;0.651592;0.659249;0.658651;0.661052;0.667059;0.672217;0.678461;0.673718;0.677786;0.685021;0.691044;0.695809;0.697767;0.699211;0.705911;0.709534;0.718089;0.720835;0.728855;0.730152;0.735866;0.740762;0.744843;0.747976;0.758776;0.756561;0.765072;0.768527;0.776887;0.778848;0.784255;0.784665;0.789458;0.790537;0.796681;0.795481;0.798397;0.798410;0.807980;0.801140;0.811661;0.808525;0.809222;0.805623;0.804854;0.803332;0.799668;0.801998;0.794589;0.798819;0.796974;0.794648;0.790539;0.783260;0.779195;0.775212;0.768035;0.767123;0.765058;0.757999;0.751111;0.747519;0.737735;0.735642;0.720941;0.719476;0.712706;0.699951;0.698725;0.688135;0.678939;0.671481;0.667044;0.659656;0.648539;0.645295;0.638907;0.631515;0.627316;0.618483;0.611621;0.601760;0.601613;0.595562;0.587224;0.584264;0.577767
0.529940;0.527953;0.530967;0.533025;0.539114;0.535030;0.540554;0.539529;0.544305;0.547220;0.543591;0.550493;0.550700;0.556195;0.557918;0.562485;0.565502;0.561156;0.571042;0.572271;0.572156;0.577529;0.579876;0.586981;0.584342;0.589000;0.592533;0.594828;0.595004;0.594846;0.603012;0.605563;0.605298;0.608224;0.611743;0.612374;0.616340;0.611977;0.618518;0.621130;0.621680;0.621009;0.629614;0.623496;0.626742;0.622445;0.629313;0.630714;0.627696;0.633819;0.633157;0.634700;0.632648;0.638244;0.637029;0.636502;0.639788;0.635545;0.636440;0.641379;0.638376;0.641954;0.636361;0.639646;0.640616;0.638768;0.638068;0.634231;0.641763;0.640111;0.637916;0.635282;0.642103;0.645074;0.637609;0.635791;0.638348;0.639766;0.636192;0.639031;0.635804;0.631345;0.641895;0.638464;0.634772;0.638619;0.637235;0.632987;0.634414;0.639028;0.638383;0.636857;0.638577;0.638180;0.640119;0.637667;0.642235;0.638797;0.636108;0.642187;0.640066;0.640814;0.641388;0.640322;0.641306;0.641608;0.645456;0.647278;0.647414;0.646792;0.647943;0.654965;0.649186;0.653829;0.658274;0.662517;0.659610;0.665546;0.664044;0.668771;0.664792;0.674249;0.672738;0.679108;0.682044;0.684772;0.686906;0.689708;0.692024;0.694215;0.695648;0.700047;0.702182;0.707048;0.714389;0.712593;0.716834;0.720617;0.723890;0.731025;0.728380;0.733004;0.739964;0.738412;0.740659;0.742417;0.745953;0.750029;0.747580;0.754296;0.753650;0.752923;0.749897;0.752744;0.754055;0.750090;0.751855;0.753184;0.754170;0.746708;0.748887;0.745831;0.747657;0.739127;0.736795;0.731920;0.734399;0.728724;0.727154;0.718253;0.716761;0.711220;0.708750;0.699486;0.692911;0.688056;0.684142;0.675145;0.668317;0.669776;0.662122;0.650906;0.645657;0.644573;0.637623;0.630831;0.631348;0.623620;0.613938;0.608274;0.601850;0.594264;0.593539;0.585653;0.582404;0.574135;0.572121;0.567856;0.559797;0.559649
0.522605;0.523455;0.523958;0.523389;0.525564;0.534075;0.526365;0.535828;0.535680;0.535901;0.536317;0.544585;0.544368;0.549607;0.549124;0.556325;0.557739;0.558294;0.564870;0.565104;0.569131;0.574848;0.573766;0.583721;0.585825;0.588404;0.592879;0.599857;0.602980;0.611681;0.612056;0.616895;0.624227;0.624224;0.635337;0.641787;0.648168;0.651951;0.658423;0.665515;0.673422;0.678849;0.690323;0.689247;0.702464;0.711129;0.712677;0.726212;0.732319;0.737239;0.745956;0.757447;0.761197;0.769551;0.781581;0.783323;0.797522;0.802928;0.809041;0.817572;0.824169;0.832976;0.838243;0.842690;0.856859;0.862945;0.866234;0.870188;0.877841;0.882726;0.890348;0.892949;0.894922;0.904057;0.906858;0.910192;0.910416;0.913141;0.903908;0.905354;0.909619;0.905803;0.910077;0.907303;0.904609;0.899764;0.896552;0.896667;0.891640;0.887672;0.882300;0.876368;0.870362;0.861722;0.861097;0.852727;0.847254;0.834027;0.831771;0.822408;0.815519;0.809840;0.795249;0.795475;0.780431;0.776555;0.763790;0.759917;0.746921;0.739008;0.731884;0.721862;0.714467;0.707757;0.700162;0.695535;0.685156;0.675526;0.674482;0.665551;0.659981;0.647270;0.638112;0.634283;0.628378;0.629976;0.622408;0.612400;0.611581;0.604062;0.604388;0.596016;0.595720;0.582894;0.577205;0.575426;0.573656;0.566010;0.564459;0.561590;0.555235;0.556221;0.552423;0.550375;0.546207;0.546755;0.540736;0.537967;0.538802;0.533647;0.530059;0.529848;0.532965;0.524526;0.526883;0.521524;0.524059;0.520330;0.515979;0.520193;0.513981;0.516467;0.506850;0.510725;0.510524;0.508445;0.512256;0.508450;0.508987;0.507673;0.507931;0.506029;0.503612;0.503430;0.506650;0.503472;0.504207;0.503762;0.502736;0.503272;0.499703;0.503355;0.496532;0.499584;0.502453;0.498722;0.502651;0.505381;0.498947;0.503482;0.498950;0.498983;0.501211;0.497535;0.495268;0.496837;0.497123;0.500280;0.497638;0.497339
0.560504;0.561986;0.567439;0.569420;0.573954;0.576379;0.580687;0.588203;0.592711;0.602773;0.602674;0.611227;0.617777;0.621118;0.621058;0.630349;0.641009;0.640358;0.643796;0.653986;0.657967;0.664118;0.668420;0.672559;0.679039;0.683132;0.686859;0.692765;0.695224;0.698903;0.706410;0.713040;0.710773;0.722680;0.722061;0.723837;0.728468;0.730050;0.733154;0.737940;0.736419;0.740358;0.738471;0.735892;0.741376;0.737661;0.741862;0.737934;0.743443;0.738258;0.741096;0.741036;0.737950;0.735519;0.735276;0.734189;0.729064;0.724441;0.727578;0.724676;0.716152;0.716729;0.715693;0.714442;0.710104;0.710150;0.707913;0.701239;0.700351;0.693415;0.693680;0.691211;0.684711;0.677557;0.678262;0.673520;0.673768;0.668783;0.661792;0.660736;0.661024;0.656375;0.653877;0.648901;0.642513;0.637593;0.637977;0.637618;0.630629;0.629900;0.624758;0.621046;0.621730;0.615330;0.611923;0.609188;0.607961;0.609002;0.606299;0.599873;0.597032;0.595853;0.594782;0.595260;0.587694;0.589963;0.584921;0.587406;0.584646;0.586965;0.587319;0.585176;0.584939;0.585369;0.587584;0.587523;0.590920;0.587118;0.590128;0.586380;0.590440;0.590517;0.593598;0.591407;0.592004;0.597958;0.601293;0.601211;0.606687;0.612206;0.610879;0.614426;0.620971;0.620454;0.625147;0.628989;0.634281;0.636244;0.638241;0.639384;0.643995;0.644303;0.648856;0.649983;0.659257;0.660568;0.659286;0.664964;0.664411;0.668717;0.665037;0.669834;0.675816;0.671878;0.675818;0.677370;0.675856;0.680119;0.675381;0.679699;0.681686;0.679681;0.675368;0.673412;0.671516;0.673355;0.673742;0.666155;0.670286;0.665301;0.660995;0.657983;0.649328;0.651963;0.646288;0.641981;0.637846;0.634183;0.630771;0.622700;0.621483;0.617316;0.608179;0.604178;0.604880;0.599956;0.598523;0.593220;0.587368;0.588452;0.583652;0.573531;0.568994;0.564161;0.561150;0.558612;0.556797;0.553909;0.541141;0.538887
0.512030;0.514800;0.517107;0.523482;0.522739;0.523243;0.521259;0.526269;0.528544;0.528506;0.531421;0.535874;0.530187;0.534992;0.542039;0.538762;0.540849;0.545933;0.549489;0.553170;0.555227;0.562386;0.556771;0.566037;0.568505;0.567924;0.576209;0.575744;0.584367;0.585271;0.587595;0.595689;0.595293;0.603229;0.608335;0.612170;0.620202;0.620166;0.630482;0.631274;0.637026;0.644837;0.651277;0.654612;0.660389;0.668773;0.668492;0.684903;0.686031;0.693204;0.692356;0.704809;0.712356;0.719628;0.727160;0.734473;0.738828;0.744892;0.751725;0.759836;0.765437;0.769670;0.774098;0.783301;0.790753;0.790937;0.797988;0.804458;0.805324;0.812509;0.816588;0.824430;0.819997;0.826990;0.831912;0.827601;0.834473;0.833116;0.836855;0.834403;0.837547;0.838086;0.835092;0.829702;0.831014;0.829535;0.828127;0.826229;0.821347;0.821211;0.816682;0.816424;0.808236;0.807103;0.801743;0.792784;0.788378;0.782542;0.783240;0.771220;0.768615;0.761827;0.758630;0.750500;0.746238;0.737913;0.733324;0.725470;0.723413;0.713596;0.711029;0.704088;0.697622;0.694443;0.687941;0.683455;0.683812;0.677029;0.672248;0.669396;0.665462;0.662424;0.660447;0.653427;0.650235;0.648794;0.637731;0.639559;0.634036;0.631998;0.633443;0.627497;0.625375;0.629253;0.620720;0.622271;0.618231;0.613758;0.618630;0.620370;0.614520;0.619744;0.611717;0.608767;0.609751;0.614882;0.611162;0.611615;0.608547;0.613251;0.609499;0.602418;0.603224;0.607001;0.599894;0.597056;0.596365;0.596028;0.599813;0.596681;0.596543;0.591558;0.596142;0.588774;0.590773;0.583997;0.584799;0.586679;0.582066;0.581559;0.576575;0.577884;0.578327;0.571136;0.567855;0.567771;0.567591;0.563219;0.562210;0.563409;0.562158;0.553915;0.551220;0.549279;0.550071;0.545748;0.542160;0.537565;0.540266;0.536602;0.530524;0.536761;0.531528;0.531407;0.526217;0.529935;0.526061;0.522245;0.522485;0.516758
0.566561;0.573861;0.577694;0.583635;0.588952;0.590931;0.601626;0.605887;0.610029;0.619943;0.620542;0.628890;0.632457;0.641500;0.647162;0.649380;0.661955;0.668835;0.668907;0.674622;0.684838;0.691037;0.699556;0.706521;0.714053;0.714917;0.720957;0.732246;0.734074;0.741929;0.745139;0.746303;0.754896;0.755316;0.761998;0.765111;0.772525;0.772656;0.779459;0.777564;0.784862;0.788243;0.784181;0.790583;0.788561;0.792419;0.789846;0.786703;0.790903;0.789610;0.792081;0.793491;0.795781;0.792916;0.794007;0.789493;0.791066;0.791069;0.784635;0.783945;0.779433;0.778595;0.775652;0.777981;0.769271;0.776113;0.764622;0.760997;0.761609;0.756106;0.759236;0.755946;0.752415;0.750096;0.743665;0.742453;0.740913;0.736213;0.738367;0.734709;0.727199;0.725497;0.723278;0.722450;0.718307;0.716938;0.720340;0.712216;0.710590;0.705794;0.705442;0.706121;0.697633;0.696647;0.694033;0.691227;0.692442;0.689117;0.687213;0.683865;0.677016;0.678611;0.676576;0.672984;0.670013;0.671416;0.665603;0.666674;0.666961;0.658055;0.659425;0.658455;0.652938;0.655164;0.647349;0.652838;0.648889;0.644727;0.644380;0.641948;0.639934;0.637948;0.632152;0.631095;0.631435;0.626047;0.627480;0.626032;0.619063;0.623932;0.622108;0.618689;0.616066;0.612525;0.612305;0.613341;0.608768;0.605462;0.603613;0.604478;0.603020;0.600153;0.598752;0.600169;0.595701;0.597190;0.593009;0.585677;0.585508;0.579613;0.580025;0.579351;0.576174;0.573928;0.572939;0.575007;0.569493;0.570198;0.564640;0.567175;0.564307;0.564620;0.559242;0.560297;0.561104;0.558683;0.555121;0.555238;0.556868;0.550400;0.549365;0.547702;0.547757;0.544760;0.542863;0.543578;0.541118;0.544861;0.538831;0.534639;0.533717;0.536589;0.533840;0.531697;0.532238;0.527649;0.529212;0.526580;0.531475;0.527242;0.527255;0.526519;0.522261;0.521869;0.523690;0.519202;0.523615;0.521676;0.517760;0.518535
0.525618;0.522814;0.530545;0.530085;0.531037;0.532228;0.537110;0.538243;0.544369;0.543642;0.544750;0.549829;0.555297;0.558239;0.555084;0.564629;0.566646;0.563907;0.568480;0.576635;0.575803;0.578639;0.579245;0.584473;0.591977;0.592311;0.591279;0.594927;0.601714;0.606858;0.609449;0.606544;0.613593;0.614145;0.615985;0.619081;0.618106;0.626257;0.629585;0.631464;0.634051;0.639116;0.639093;0.645650;0.643962;0.647433;0.649960;0.654148;0.657841;0.653893;0.660017;0.661285;0.662734;0.666877;0.667105;0.666967;0.670980;0.672934;0.673296;0.674413;0.677600;0.681637;0.682535;0.681299;0.687629;0.688439;0.688489;0.687968;0.689145;0.693428;0.692167;0.693110;0.696863;0.694731;0.688653;0.694672;0.691739;0.693331;0.694702;0.697396;0.700213;0.693784;0.697934;0.690603;0.696803;0.697852;0.696650;0.691271;0.692014;0.694793;0.693122;0.689521;0.691314;0.688391;0.689786;0.689334;0.686589;0.685884;0.684412;0.683624;0.687199;0.682918;0.681775;0.679994;0.679579;0.680438;0.680820;0.678422;0.677983;0.674291;0.675015;0.672277;0.675036;0.679335;0.677836;0.674640;0.674395;0.675799;0.674769;0.675648;0.673878;0.672476;0.681590;0.675827;0.677127;0.679532;0.675120;0.682152;0.681684;0.680186;0.689298;0.680830;0.687154;0.688434;0.685069;0.689345;0.683242;0.691285;0.692819;0.693822;0.693789;0.699132;0.694692;0.700454;0.700001;0.698690;0.696639;0.694807;0.698845;0.700703;0.702003;0.696942;0.696565;0.702045;0.702950;0.701010;0.694908;0.699321;0.696717;0.692419;0.688527;0.685720;0.690494;0.682834;0.680045;0.679640;0.673925;0.677157;0.668362;0.664896;0.663990;0.656376;0.652332;0.652324;0.643139;0.638954;0.636334;0.633551;0.627600;0.624326;0.616461;0.619213;0.611751;0.605982;0.601339;0.598767;0.592771;0.588424;0.584831;0.580693;0.575742;0.570956;0.570871;0.561648;0.561069;0.552761;0.553219;0.546813;0.545063;0.542513
0.518753;0.521286;0.519657;0.522715;0.527855;0.532129;0.530318;0.533792;0.533768;0.532476;0.535242;0.539718;0.538598;0.541994;0.542932;0.547495;0.548613;0.552794;0.552828;0.555442;0.559649;0.558216;0.557722;0.564011;0.560142;0.566988;0.569425;0.568152;0.568822;0.572820;0.579447;0.574058;0.576947;0.583321;0.577853;0.578464;0.580901;0.581073;0.584163;0.582862;0.584662;0.584003;0.582171;0.587486;0.587975;0.586094;0.589038;0.585842;0.590879;0.592281;0.588373;0.591764;0.585697;0.590911;0.594660;0.589158;0.588718;0.595796;0.590401;0.593459;0.593881;0.597888;0.594059;0.596981;0.594494;0.599764;0.602765;0.605427;0.602963;0.601729;0.604419;0.610559;0.611624;0.607945;0.614256;0.619627;0.624074;0.623024;0.631605;0.633457;0.635237;0.638381;0.646658;0.650930;0.655391;0.660395;0.663992;0.670533;0.678657;0.682462;0.687294;0.695456;0.699040;0.710002;0.711008;0.718939;0.725142;0.735684;0.737316;0.744756;0.748275;0.755656;0.762544;0.766434;0.774128;0.780618;0.785666;0.790574;0.799043;0.798123;0.806133;0.810567;0.813723;0.817269;0.819945;0.821849;0.821891;0.829395;0.828908;0.831296;0.830562;0.831087;0.831346;0.834543;0.827057;0.828013;0.825238;0.827411;0.826425;0.824536;0.816361;0.813974;0.810936;0.809427;0.810442;0.806329;0.796754;0.790776;0.783938;0.779788;0.772299;0.771191;0.762244;0.763954;0.750851;0.750275;0.740550;0.738676;0.734960;0.729182;0.718703;0.716068;0.707612;0.705165;0.699599;0.689878;0.685203;0.679533;0.672262;0.667078;0.663341;0.655705;0.651820;0.648626;0.639483;0.636722;0.632955;0.628005;0.624142;0.620804;0.609922;0.612827;0.607012;0.601055;0.594741;0.587443;0.585244;0.581657;0.580674;0.576135;0.573911;0.570232;0.562665;0.557705;0.563721;0.557721;0.553907;0.546123;0.550116;0.545915;0.543543;0.538821;0.528490;0.528031;0.528856;0.528123;0.523722;0.522388;0.525159;0.519179
0.523332;0.528863;0.528519;0.529081;0.526337;0.531605;0.535026;0.534160;0.540041;0.540962;0.544185;0.545731;0.543194;0.549769;0.547241;0.551557;0.554686;0.551499;0.559595;0.562886;0.565347;0.566299;0.569890;0.568635;0.578183;0.573043;0.576616;0.581937;0.588414;0.583849;0.586913;0.592016;0.592035;0.589773;0.595221;0.592668;0.602193;0.603603;0.602226;0.601830;0.604852;0.607162;0.603207;0.606418;0.609378;0.605378;0.607922;0.615952;0.612106;0.616793;0.613823;0.612940;0.616528;0.616178;0.617019;0.619101;0.620584;0.618681;0.617911;0.618134;0.616243;0.618340;0.615866;0.620721;0.616099;0.617709;0.617199;0.616244;0.617737;0.615851;0.615668;0.614083;0.620911;0.618861;0.615727;0.618379;0.619773;0.616971;0.614406;0.614901;0.612993;0.613308;0.618906;0.616286;0.613048;0.618460;0.613402;0.614377;0.613594;0.611909;0.610028;0.612747;0.610617;0.607895;0.608870;0.612957;0.611324;0.610032;0.613784;0.611293;0.609094;0.613413;0.616277;0.619210;0.615937;0.616787;0.624497;0.620668;0.621278;0.626916;0.623842;0.623822;0.628480;0.635825;0.634355;0.638979;0.639800;0.636825;0.648953;0.649352;0.655122;0.652631;0.666047;0.669189;0.670470;0.675958;0.684608;0.683695;0.689019;0.699182;0.696305;0.705674;0.712842;0.720195;0.719885;0.728742;0.729185;0.736843;0.745920;0.749642;0.754789;0.759524;0.763621;0.767700;0.773619;0.775168;0.783447;0.782620;0.789499;0.792665;0.795048;0.790743;0.799501;0.801731;0.804506;0.805140;0.804098;0.805480;0.807904;0.805590;0.804222;0.799911;0.799360;0.795105;0.796432;0.797943;0.793126;0.784926;0.782723;0.774301;0.769427;0.765156;0.763186;0.749485;0.745190;0.738610;0.729599;0.728834;0.718676;0.714000;0.708490;0.703760;0.692247;0.678383;0.677071;0.668575;0.663629;0.654253;0.653811;0.644328;0.635238;0.626906;0.619323;0.614417;0.606648;0.600640;0.597630;0.591154;0.581825;0.579239
0.523621;0.525806;0.526776;0.520116;0.525042;0.524349;0.523902;0.527551;0.527961;0.532548;0.535246;0.540058;0.536502;0.541141;0.542984;0.544932;0.547889;0.551928;0.553236;0.556881;0.554622;0.559077;0.559414;0.563139;0.568736;0.570426;0.572157;0.579007;0.580509;0.584200;0.588978;0.590626;0.590633;0.601685;0.600661;0.603827;0.607099;0.615669;0.617512;0.621836;0.623957;0.628612;0.630357;0.641241;0.643487;0.650595;0.648387;0.655641;0.658288;0.661932;0.669826;0.673371;0.682272;0.685052;0.690366;0.691711;0.700292;0.702994;0.705704;0.717554;0.719587;0.721250;0.729821;0.729933;0.735936;0.739738;0.737779;0.752223;0.750518;0.749646;0.755031;0.763259;0.760975;0.764154;0.769201;0.767411;0.770830;0.773346;0.775583;0.775946;0.775750;0.777318;0.774029;0.779633;0.775422;0.773442;0.773685;0.774159;0.773027;0.769778;0.766974;0.770270;0.770729;0.762592;0.758877;0.764434;0.758013;0.756061;0.754042;0.752161;0.745969;0.747659;0.739661;0.739076;0.737069;0.733200;0.728934;0.726513;0.722420;0.721434;0.719567;0.718948;0.714540;0.707498;0.708975;0.704637;0.700951;0.702445;0.693221;0.693270;0.687605;0.691743;0.691967;0.688649;0.680808;0.684882;0.681157;0.677587;0.681875;0.673440;0.674601;0.675489;0.674002;0.665429;0.669757;0.669263;0.667005;0.666264;0.664952;0.660103;0.661883;0.658890;0.658973;0.654534;0.658264;0.656112;0.659138;0.658013;0.653547;0.652380;0.649519;0.652111;0.650815;0.648219;0.649271;0.644324;0.643753;0.640932;0.641100;0.636145;0.634478;0.633398;0.630646;0.629146;0.626682;0.627065;0.623428;0.616251;0.616273;0.610818;0.612553;0.604298;0.606221;0.603054;0.595399;0.597105;0.593074;0.586484;0.588374;0.588034;0.581013;0.577746;0.574194;0.571637;0.569095;0.563139;0.560737;0.556845;0.555524;0.552741;0.545753;0.545743;0.549032;0.542947;0.540100;0.536922;0.534630;0.530331;0.534666;0.530339
