11012;10937;10864;10791;10720;10649;10579;10510;10442;10375;10309;10243;10179;10115;10052;9990;9928;9868;9808;9749;9690;9632;9575;9519;9463;9408;9353;9299;9246;9193;9141;9090;9039;8989;8939;8890;8841;8793;8745;8698;8651;8605;8560;8515;8470;8426;8382;8339;8296;8253;8211;8170;8129;8088;8048;8008;7968;7929;7890;7852;7814;7776;7739;7702;7666;7629;7593;7558;7523;7488;7453;7419;7385;7351;7318;7285;7252;7220;7188;7156;7124;7093;7062;7031;7001;6970;6941;6911;6881;6852;6823;6794;6766;6738;6710;6682;6654;6627;6600;6573;6546;6520;6494;6468;6442;6416;6391;6366;6341;6316;6291;6267;6243;6219;6195;6171;6148;6124;6101;6078;6055;6033;6010;5988;5966
0.505388245505708;0.471902550012956;0.440708881979306;0.410446244738469;0.383291699449907;0.363143961954973;0.349929411721918;0.342150993020854;0.338238884080524;0.337001296102495;0.337354438511141;0.339023212741543;0.34075524190896;0.342567698587097;0.343958940711256;0.344951027535698;0.346487540595228;0.347897996424001;0.349013196633728;0.350426636951627;0.351556651512649;0.352844017841908;0.354020383577015;0.355197090850028;0.356508140074831;0.357740705177238;0.358749836938487;0.359997942767495;0.361461625619515;0.362951393401212;0.364484888605102;0.366205239182674;0.367994953660445;0.369857001654199;0.372091205114891;0.375283311411422;0.380107301423495;0.386416295476075;0.394514807511048;0.40321229642756;0.412088206196929;0.42078043801351;0.428571862018091;0.435809316359769;0.442760675572181;0.449411759857714;0.45489646811655;0.458500758468494;0.459821490679624;0.459398144047397;0.457243269176821;0.454643270388878;0.45211864104748;0.450636447580307;0.449732623363058;0.44954416069347;0.449740941575475;0.450329859856332;0.450906576022001;0.451347996032191;0.45180768694182;0.451862754718921;0.452411355215151;0.453466960199401;0.455015197646928;0.457630884104611;0.461203646807147;0.465974147917321;0.471952500941079;0.479237507926909;0.48706571627149;0.495281816405042;0.502905379023344;0.510320458111655;0.518574284945472;0.526991966731183;0.534470673233213;0.544220204359668;0.558624459311949;0.578273040455769;0.605267169496725;0.639781597066017;0.680248914609211;0.724446798111809;0.767799809149056;0.806599600884799;0.838458614100342;0.862514227462844;0.879785168184657;0.891708018191509;0.899381701966736;0.902425156975529;0.902560470663344;0.899131680316621;0.893448757243933;0.886706236470975;0.878750805498591;0.870919449442615;0.863392300673448;0.856549561619674;0.850861593534051;0.846658088345165;0.843555649241417;0.841608857477736;0.840347700605541;0.839247634505811;0.838043553185008;0.836415274999204;0.833561597043257;0.829293947029526;0.823388767556906;0.815738534792385;0.806757100352638;0.796880589245673;0.786396189504044;0.775789476114949;0.766167092084264;0.757292388964881;0.748693283679174;0.741360562567742;0.735003067455481;0.729186355555005;0.724318098106237;0.720581066932966;0.719404103426288
0.50355540045062;0.470636899749312;0.440217938433322;0.409975380502966;0.383146441647341;0.363183247608573;0.349866423806656;0.342032416798393;0.338345922408974;0.337027340103978;0.337426593802641;0.339007760645375;0.340591946044479;0.342362926012533;0.343829134040498;0.344823421972247;0.346338754144937;0.347805603336123;0.348923281605742;0.350336039636011;0.351494305218034;0.352826500322741;0.35401959853249;0.35523625458076;0.356543770209861;0.357750998687517;0.358733170795756;0.360036944852273;0.361563260909721;0.363117105441048;0.364637611213476;0.366350996249539;0.368116679599588;0.369902904626322;0.37213110393682;0.375287948895753;0.380100944920302;0.3863070895203;0.394260230433718;0.402848790406202;0.41160525114625;0.420154349420973;0.427825919003222;0.434932369477511;0.441851694662131;0.448429611790102;0.453856404491233;0.457416551177614;0.458643701183222;0.45830059291256;0.456216077158753;0.453713917479268;0.451250518602264;0.449825967736295;0.448971691920989;0.44882493888577;0.44906963626069;0.449649939208928;0.450297032753808;0.45076505337826;0.451207065942461;0.451319511699475;0.451800681051226;0.452922077770316;0.454452046803869;0.457049653569971;0.460561930828451;0.465292510221372;0.471204225167769;0.47841686175893;0.486123332180423;0.494187278513841;0.501728051880179;0.508967373848874;0.517076561103548;0.525376593579988;0.532681718049914;0.542167739757507;0.556286206344008;0.575427867629582;0.601694469237414;0.63512476495321;0.674233191665235;0.716755776188228;0.758327034614902;0.795403911650745;0.825916631056747;0.848626778389972;0.865191042474409;0.876616539111008;0.88393080948497;0.886949204229234;0.887295819076033;0.884270032174277;0.879118552435326;0.872961323141814;0.865565325687036;0.858372155338205;0.851346145879605;0.845072026553886;0.839796868770874;0.835907501468539;0.833130781010139;0.831327537537351;0.830240067122138;0.829281342100303;0.828270329362521;0.82686270178003;0.824148827377981;0.820243747929558;0.814577412987331;0.807307962715938;0.798812972060149;0.789402743486237;0.779349644164291;0.769164983673429;0.759913246962857;0.751389500035986;0.743121407284705;0.73602609417176;0.72990208633502;0.724396833115401;0.719823105065213;0.716268987250752;0.715512867936857
0.505609948582705;0.471901133962141;0.441089805275658;0.410636142077922;0.383428710320542;0.363412317649438;0.349952256818991;0.342228724793995;0.338456016749525;0.337118789565459;0.337514820880254;0.339242255560899;0.340826822154438;0.342535872713734;0.344057999520236;0.345088764464764;0.346534318092168;0.348075001007503;0.349263349504581;0.350554050115428;0.351685177514897;0.352964702411699;0.35415435258115;0.355414602452057;0.35675494615655;0.35789414335476;0.358902242762933;0.360159744696056;0.361671311926336;0.36318795811686;0.364710925077087;0.366425306765475;0.368198187140902;0.370025573844121;0.372294522744764;0.375478025301749;0.380289491254396;0.386561699359201;0.394681375633259;0.40344314719504;0.412313275349583;0.421014065836815;0.428837931529905;0.436078198872416;0.443068107882504;0.44975598815856;0.455272081434848;0.458842900707001;0.460076473582371;0.459764152670334;0.457577322094184;0.454965795286118;0.452419847978129;0.450884375746601;0.45001969379962;0.449802232140306;0.450021162678497;0.450598326773177;0.451185095772173;0.451697695210896;0.452072518725985;0.452185188815023;0.452617936469231;0.453749720043111;0.455286577478979;0.457900039764939;0.461490485200266;0.466262884794707;0.47228788736168;0.479614866084567;0.487465818820479;0.495706833599529;0.503356471948812;0.510793542916947;0.519038371655605;0.527528494526694;0.535001937296622;0.544697315001125;0.559120501320097;0.578678785552983;0.605497187511026;0.639793534539683;0.679878650173166;0.723574043834883;0.766365362212618;0.804604366220876;0.836073914305508;0.859653511872012;0.876797346586452;0.888615820255861;0.896233554737021;0.899311777833985;0.899521239423551;0.89648225521572;0.890914405595209;0.88440047062387;0.876771185332043;0.869223155528236;0.861845145044486;0.855155337620224;0.84955059053912;0.845460696994257;0.842492461365899;0.840525450096024;0.839291727676235;0.838293679392964;0.837166557617247;0.835601040056874;0.832819474788009;0.828592438469833;0.822831868715539;0.815290970677612;0.806445495923;0.796744580480167;0.786362197757919;0.775885117966169;0.766337720665281;0.757526404455032;0.749000917977523;0.741744508751416;0.735412130698459;0.72959929451112;0.724678738588308;0.720802046043121;0.719561181671964
0.537808865387233;0.500768203105264;0.466304184904573;0.431645947451355;0.402792682256448;0.381119797390684;0.366343323605265;0.358798747823674;0.354419860879021;0.353225859971283;0.353481490112047;0.354850183583732;0.356940636769039;0.3584272424789;0.359648075636346;0.361169930678766;0.362337487680534;0.363493649030732;0.364782541238211;0.365728136215072;0.366973942051716;0.368073803041038;0.369055449101404;0.370102246974947;0.371318709364712;0.372351227169732;0.373428481107292;0.374606666650415;0.376072808930395;0.377585770934706;0.37912252832646;0.38071973330887;0.382748071750487;0.384543410452051;0.387131305255025;0.390542836710287;0.395726954905816;0.402803332365454;0.411482243984567;0.421642886569482;0.431528392966759;0.441018941193747;0.449624378802427;0.457586663829706;0.465329660580546;0.47288240472859;0.47879664621705;0.482712104726636;0.484193689034378;0.483432633594741;0.480933673135074;0.477762529444568;0.47482583136772;0.472593618546934;0.471520769722963;0.471016875735073;0.471123133291484;0.471599234392098;0.472130594427564;0.472642359509309;0.472970020098173;0.473151629877435;0.473605017575179;0.474509200669022;0.476364331422159;0.479233449278008;0.483283410420798;0.488646667961835;0.495578074852177;0.50378226520882;0.512833049734761;0.522210446236494;0.531419040646874;0.540120862472453;0.549538724437825;0.559091389994258;0.567946095409078;0.579711639982601;0.596846006823987;0.620032755551377;0.651912923043036;0.692659522992259;0.740703874934887;0.793566514954418;0.845883215481819;0.893230655548709;0.932580954833527;0.962450801320475;0.983741565046793;0.998592563147964;1.00750520204443;1.01081235104878;1.0105852476886;1.00551690550266;0.997407631471686;0.987926201935085;0.977512654555873;0.966931868151108;0.956947930791691;0.947893464338448;0.940386605138667;0.934759862263732;0.930479159058925;0.927623252500188;0.925741408290665;0.923953340109674;0.922203826287878;0.919871577958162;0.916183597541098;0.910497592045017;0.903157047237134;0.893529978851259;0.882384388986599;0.870411605388453;0.857819909277483;0.84513039615844;0.833662853480309;0.823199682903674;0.81324504539507;0.804249748457502;0.796201785864354;0.789579006259051;0.785028001026545;0.781711908293013;0.780766613653758
0.53900599195049;0.501467805784001;0.467149602872062;0.432224680670375;0.403132516555065;0.381249855814872;0.366698022209399;0.359054404265239;0.354684352224989;0.353254364732846;0.353543436195371;0.354960609106195;0.357037958503104;0.358515478451603;0.359781505061743;0.361338656756118;0.362538490538864;0.363702111429363;0.36492490336634;0.365901668418411;0.367131891551642;0.368100258289777;0.369095679567243;0.370196757851059;0.371290015107077;0.37230649761134;0.373449312545078;0.37466542322432;0.376109151694483;0.3775832844827;0.379112963218319;0.380668707794576;0.382713894832634;0.38453204083617;0.387038860210296;0.39047922433665;0.395725010518411;0.402776982056589;0.411527723447598;0.421690130719052;0.431615323907006;0.441169316309405;0.449935486383968;0.458002013573693;0.465785232705573;0.473421280392258;0.479408791298082;0.483326625675982;0.48473459456923;0.483947708515137;0.481325927107105;0.478164335376215;0.475086927326753;0.472845376741926;0.471743981014831;0.471260779970264;0.471355268626736;0.471767917104576;0.472296133607857;0.472773910043561;0.47307559493562;0.473257378012226;0.473729879171968;0.474579528707572;0.476463189386436;0.479325760187997;0.483354248688137;0.488748094335226;0.495721248253368;0.503931356882998;0.513059577766786;0.522503242934852;0.531716636717056;0.540481313744297;0.550003533573107;0.559609075883476;0.568495193464385;0.580277809509374;0.597435147454471;0.620575724840496;0.65244382007473;0.693143680256988;0.741192528258069;0.79418767045905;0.846666021021119;0.894349501172454;0.934197407126874;0.964367371609311;0.986155790129112;1.00117413741269;1.01042347226588;1.01398284715838;1.01387970328856;1.00887958594002;1.00081802527765;0.991355549489394;0.980828439226904;0.970350044854193;0.960413387139173;0.951291796942533;0.943793628900585;0.938183122820653;0.933946292957152;0.931046450002313;0.929172620312632;0.927454911900952;0.925599774830279;0.923259094121984;0.919630053431772;0.913854165468486;0.906482710528047;0.896790334932744;0.885459736141657;0.87332225170327;0.860522979404574;0.847650797485496;0.836072723289437;0.82541371492882;0.815310556155164;0.806237791113712;0.798055572610285;0.791336446985885;0.78660869821543;0.78315796973593;0.78200415331426
0.533714397981051;0.49707059081449;0.463727351563376;0.429263305269879;0.401024765934923;0.379718891983204;0.365203424161739;0.357760995503138;0.353362719489033;0.351969396965899;0.352289574037636;0.353753746326826;0.355883754968788;0.357349534689522;0.35857963428456;0.360101723911097;0.36132209056097;0.362554202496889;0.363794235933946;0.364738886161638;0.366035721865385;0.367168404059284;0.368236715929939;0.369361843107372;0.370508545121481;0.371576838674918;0.372679828673051;0.373903028930791;0.375398335639696;0.37685081567631;0.378416420528294;0.380044574102474;0.382125341760161;0.383883623327696;0.386410374604063;0.389797470926811;0.3948918858513;0.401839732006;0.410431494565534;0.420286467591786;0.429998046854809;0.439272939020589;0.447781639316789;0.455558994838078;0.46321500066161;0.470568747270653;0.47635483703897;0.480224360889914;0.481658496099183;0.480939850722939;0.478537363228526;0.475463679887906;0.472644422739504;0.470513052433254;0.469501650898758;0.469076057000592;0.469275494214379;0.469758924087401;0.470304452770968;0.470805465840969;0.471139453260335;0.471373911674131;0.471890578092465;0.47273211908469;0.474625902226586;0.477444272763801;0.481409473121414;0.486610714366688;0.493388233563548;0.50146890819276;0.510234536380608;0.519374125327387;0.528330646324002;0.536787490806989;0.545937727120228;0.555252309868766;0.56382064964654;0.575174531400092;0.591701849911265;0.614061787794407;0.644824239992522;0.684073295988021;0.73035702039855;0.781260261611499;0.831773077219615;0.87734611496189;0.915207879524088;0.943948193575021;0.964660332222548;0.978985694815336;0.987813016977208;0.991221463509588;0.991085291556855;0.986600664623061;0.979113571810424;0.970105110996821;0.960296843988185;0.950390900665824;0.940973060643967;0.932328915145102;0.92527422961999;0.92005326113398;0.916068672285753;0.913321684852366;0.911550977516716;0.909949441921408;0.908269397431445;0.906054325553654;0.902590661776789;0.897205904001475;0.890220043857318;0.880943152962494;0.870287878162468;0.858714882070862;0.846451889612291;0.834208919942962;0.823158060642023;0.813014580767462;0.803403269945163;0.79464430916783;0.786824235113185;0.780335327917518;0.775745938834208;0.772401464410477;0.771244035061518
0.575754760622074;0.532950103154239;0.495471914991714;0.457445064682325;0.425541480920383;0.401763380317644;0.386170541427493;0.377708764473277;0.372967674404855;0.370984401063943;0.371392342806629;0.372855239179562;0.375209839656028;0.376433686963783;0.377475137596432;0.378861642724299;0.379979043107058;0.381275976660717;0.382307542442262;0.38323795679708;0.384436568862147;0.385161396594685;0.386042804259479;0.386984546011285;0.388087406338543;0.388961377968781;0.390010743742619;0.391174128638802;0.392393375496063;0.393740125337379;0.395234870591521;0.396713340728447;0.398791190847156;0.400771372239114;0.403392789278086;0.406995983592986;0.412536552357426;0.420539615861571;0.430359742361304;0.441124342216977;0.45223649044993;0.463125798757688;0.472794291044019;0.481882106651227;0.490709283163228;0.499000200466426;0.505250329309998;0.509383971115804;0.510785517849385;0.509530927494054;0.506141718151266;0.502309896273658;0.498586322776405;0.495823524442414;0.494354801273724;0.49348062664341;0.493351849882747;0.49364381675457;0.493953586517832;0.494483197804156;0.494670912145111;0.494478451744635;0.49499933607313;0.495828149200977;0.497764667467546;0.500830806114871;0.505287167555135;0.511328036382477;0.518969358282875;0.528152718168254;0.538423895402926;0.549389899710563;0.560023133208597;0.570208651396332;0.581130022794725;0.592180112333698;0.602533456586185;0.616426075533049;0.636609359880462;0.664185983462023;0.701901155451717;0.750787451809778;0.809096810243703;0.874517758357847;0.940559277207434;1.00203901446184;1.05424286740628;1.0950012010615;1.12507738553647;1.14594051306811;1.15919232128632;1.16418492746987;1.16383051052279;1.15709128783105;1.146794145972;1.13385685880247;1.11940080781685;1.10452607101205;1.09000123752578;1.07667483081844;1.06532115202069;1.05652472604106;1.04970862161181;1.04460505226847;1.04073226084659;1.03744779713289;1.03426542720433;1.03031637078098;1.02490045043164;1.01688027920604;1.00676178237512;0.994197672979606;0.979444405759409;0.963794029115038;0.947706686165947;0.931658636704875;0.917212476162533;0.904069121084451;0.891943642110859;0.880837513879662;0.870857186457589;0.863312719462695;0.85901079151927;0.856705654078252;0.856735005726537
0.569109713981256;0.52741437752598;0.490875334958489;0.45408171331448;0.422891421519022;0.399582899590264;0.384443831152393;0.376393804189429;0.371638252525572;0.369687375780706;0.370288233003646;0.371729520761428;0.374086642044767;0.375417406220091;0.376402069748524;0.377720889564091;0.378989883233089;0.380443599291339;0.381500576271033;0.382462158828;0.383728605215565;0.384558465123658;0.38550817408081;0.386434058576455;0.387585768614631;0.388591855642935;0.389611142797271;0.390877488733838;0.392169929787333;0.393457201948011;0.394936846723997;0.396443730373968;0.398414734759886;0.400500651443217;0.403120320097519;0.406742849977881;0.412299134970203;0.420168062240589;0.429878016031511;0.440414728174301;0.451284154437042;0.461861406916129;0.471259237468867;0.480091321542529;0.48872815509047;0.496749457592208;0.502796860197399;0.506800092832029;0.508151748717694;0.507041221418906;0.503880637799895;0.500292714911986;0.496761862152191;0.494186871983802;0.49277485257681;0.492057682633988;0.492003072943886;0.492211975257073;0.492653981675006;0.493164704690172;0.493438283011715;0.493303568440319;0.493832793354641;0.494716360980045;0.496615619931821;0.49966580618433;0.503992338485829;0.509865449156222;0.517237289923719;0.526137873996122;0.536022398991924;0.546471445022853;0.556621372579122;0.566313353832076;0.57669611475043;0.587318749297523;0.597040180345135;0.610119601502437;0.629096646366502;0.654851023513802;0.689997861153634;0.73534719303373;0.788924599936255;0.848670914662209;0.908301394566877;0.963119302815888;1.00911666468269;1.04482061874918;1.07102740062605;1.08932347223029;1.10075436086056;1.10527238354184;1.1052337563796;1.09996819962787;1.09149685908774;1.08074498174725;1.06849814269472;1.05589177210522;1.04356569359739;1.03207297715368;1.02221660333435;1.01468837988158;1.00870227162917;1.00434866223083;1.00104891423587;0.998149510551583;0.995480014163148;0.992146434264127;0.987266090639195;0.980243337796176;0.971492594915907;0.960203314966228;0.947119532304916;0.933114884564788;0.918687984557871;0.904166981866429;0.891076256508081;0.879090607197065;0.868082179660204;0.857993056656821;0.8488910499842;0.841940413276975;0.837889240933578;0.835895298385461;0.836005436186546
0.566909251860973;0.525592571841255;0.489673666535929;0.452882770089746;0.421657907817059;0.398956686831961;0.383574902907463;0.375246316365254;0.370756300448909;0.368768965612566;0.369218832337533;0.370692359926251;0.372979770356471;0.374358865184427;0.375385450586455;0.376760222823515;0.377955063477363;0.379218710959699;0.380443390718476;0.381546472008801;0.3827126368379;0.383514298428087;0.384566676982682;0.385552595946221;0.386736777346304;0.387657971290436;0.388697598762413;0.390001468833343;0.39124864102537;0.392632273387597;0.394161304401803;0.395665170851646;0.397723349777468;0.39970007440114;0.402336729311346;0.405871532320761;0.41132881394213;0.419130768059626;0.428605650685614;0.438967822633872;0.44982278660176;0.460284478149615;0.469554911482598;0.478336371812263;0.486886723068096;0.494857350461313;0.50085020800009;0.504906980378477;0.506222932953478;0.505130661330958;0.502002250860562;0.49841729694687;0.494917342542291;0.492345272104416;0.490982394712893;0.490278382575661;0.490215939480077;0.490468587188865;0.490863097396075;0.491412513604869;0.491651577895046;0.491510278362301;0.492063750801232;0.49298818062189;0.494860200576298;0.497860456302313;0.502149490450511;0.507930842605567;0.515278032286535;0.524126091405003;0.533918526398049;0.544387042200036;0.554446856570145;0.564085114647573;0.574469039983059;0.584951826195572;0.594721103310227;0.607800220362287;0.626701352666321;0.65242489705666;0.687524538816442;0.73281935104519;0.78648197738024;0.846093105453741;0.905610287367643;0.96051211651907;1.00654331184823;1.0422178811619;1.06837561388048;1.08661466865103;1.09809513529566;1.10267795651212;1.10272422458356;1.09738495648069;1.08873710759374;1.07803072706695;1.06585296443139;1.05332637000657;1.0409472970798;1.02941307270462;1.01953679264613;1.01205470563203;1.00618004039221;1.0019244907619;0.998635421305607;0.995762483247352;0.993203762774493;0.989962225989485;0.985091121961989;0.977990039805097;0.969282512367596;0.958056505102859;0.944861820340866;0.931003469918276;0.916518880428749;0.901987237922528;0.888910297315443;0.876917054426819;0.865866579160835;0.855750934458085;0.84662147787213;0.839719093406239;0.835699203181031;0.833571070328698;0.833624065330327
0.53375209884271;0.495726687869721;0.461566404063048;0.427824406999617;0.398158296498605;0.376357747527826;0.361756413534713;0.353082972543753;0.348710159393514;0.346856978901323;0.347137861895093;0.348616042704298;0.35027309000969;0.351890488134085;0.353115482892074;0.354052375348628;0.355473674183375;0.356807978407245;0.357821773175891;0.35899752356989;0.359898364047095;0.361013037336218;0.362112882771754;0.363132838346603;0.364241990349703;0.365226180771015;0.366169009387059;0.367292630257324;0.368700546259517;0.37022527810319;0.371714393232793;0.373401801907416;0.375280838106693;0.377060616879265;0.379401568687396;0.382851981905231;0.388050684073976;0.395143813012595;0.404087099515236;0.413781890008479;0.42361280361899;0.433246654302709;0.441900949000504;0.449865122069681;0.457553283618601;0.46486493936384;0.470803668142229;0.474505703991935;0.475774772961782;0.475100543884931;0.472471661166864;0.469374159304106;0.466325027066481;0.464439180967509;0.463293745713511;0.462892976020792;0.462901171884767;0.463354202324509;0.463949119963365;0.464403498509841;0.464762101307484;0.464811870872785;0.465300751494334;0.466449211166041;0.46822024664742;0.471109255375272;0.475193666649376;0.480538490175044;0.487410982976286;0.495703298002787;0.504573617866631;0.513899511916128;0.522736898916561;0.531226708624562;0.540647173582535;0.550445393831645;0.55930402627342;0.571104722498338;0.588527272037629;0.612200990537632;0.644538326658449;0.685955935509855;0.734656856889817;0.788374144309674;0.841566337696505;0.889783808868579;0.930117768064531;0.960897336010225;0.983139995489057;0.998722449365776;1.00836291288803;1.01188291946707;1.011655746455;1.00658872561806;0.998590398706742;0.989178694095449;0.978348939893445;0.967555314120419;0.957032500140402;0.947478810074828;0.939459667160523;0.93340537981654;0.928761077199577;0.925531353505062;0.923130638273738;0.921175383726439;0.919283705648498;0.916701675618126;0.912639952839101;0.906823550303752;0.899115843572312;0.889389080488135;0.878152034811761;0.865927811765725;0.853025605106088;0.840101497908286;0.828563757853157;0.818015003652687;0.807872918113353;0.798794116608209;0.790799024179678;0.784190127475984;0.779281712330698;0.775545412717341;0.7747323401564
0.540915246500872;0.502106845171678;0.46618004226162;0.431407000326777;0.401217369681784;0.378653877879874;0.363667996201055;0.354838287228692;0.350494086323109;0.34858512725381;0.348886816522847;0.350346742953002;0.351914901463697;0.353651372869933;0.354907310290721;0.355795362286622;0.357181659084299;0.358466896877904;0.359447610871489;0.360575372218045;0.361453839220662;0.3624672434422;0.363513106637358;0.364570442844848;0.365640337794656;0.366616997741258;0.367486526498848;0.368543344402504;0.369939854445357;0.371408071956101;0.372945226031526;0.374578062999317;0.376387708440385;0.378180960337117;0.380539866359234;0.384051841156604;0.389380820063285;0.396684001257854;0.405783965972016;0.415840378470587;0.425970701078395;0.435990844163691;0.445032592063906;0.453291916637426;0.461364946532981;0.468894992593728;0.475028445821898;0.478892658107847;0.480105620661525;0.479283726829965;0.476454863637476;0.473137170595225;0.469935479374581;0.467807127973387;0.466551686608225;0.466079178671286;0.466047425462285;0.466554992670264;0.467045713259395;0.467496463474672;0.46777257038311;0.467791697860815;0.46822688424961;0.469362640822827;0.47116014323627;0.474163813156178;0.478277189859117;0.483886433648734;0.491020867351708;0.499610917519813;0.508891671807047;0.518690260138537;0.527909101239091;0.536854909767639;0.54671713897952;0.556982947615649;0.566282316536201;0.578638951128638;0.597002059861165;0.621969678599039;0.656121125983474;0.69996459095601;0.751861880245762;0.809308966772528;0.86668947560698;0.919229974339687;0.963662594874629;0.997836531054109;1.02280930371578;1.04034539701465;1.0512904165486;1.05541503393648;1.05519138387021;1.04975863524253;1.04085553462765;1.0303715590314;1.01828719423609;1.00629437004312;0.994634136524658;0.984077200671944;0.975135208509178;0.968295912143921;0.963138452183047;0.959561836824771;0.956947144177378;0.95476036680004;0.952507455683297;0.949588919976799;0.945079907465365;0.938671191809555;0.930230554873859;0.91942581913479;0.906991090695164;0.893498371985262;0.879345797535974;0.865182764109568;0.852512890083964;0.840791458295577;0.829692216620322;0.819811882333025;0.811034975198685;0.803759408142029;0.798380868650857;0.794390501610816;0.793194895070511
0.537003387971944;0.498737612195251;0.463797850263705;0.429813631471303;0.399729945409538;0.377596027699706;0.362754504710882;0.353869484849055;0.349653712714832;0.347908639822297;0.348181296487909;0.349627580438747;0.351236624107875;0.35298496661301;0.354402279683145;0.355317151658041;0.356668153149498;0.357954741617751;0.358882990638594;0.360146209137045;0.360998876835422;0.361956148170713;0.36315258044203;0.364191960335156;0.365329406027125;0.366268118676427;0.367110855267919;0.368256285808069;0.369631730134486;0.371100639713158;0.372516367243127;0.374303543194804;0.376114004509617;0.377915455475519;0.380267599420145;0.383722615795441;0.389084657440174;0.396315423898306;0.405349822558838;0.415258764526292;0.425286094875692;0.435093661056822;0.443944031311288;0.452035501419318;0.45992829977495;0.467415551268421;0.473439366398248;0.477250954417087;0.478437770679372;0.477673289699322;0.47495117413729;0.471757750539699;0.468570774198507;0.46649879303808;0.465339804575648;0.464905220017622;0.46489445281035;0.465320277596019;0.465874093872856;0.466335956892641;0.466661435885024;0.466662199013007;0.467136869965629;0.46831356532879;0.470032371845552;0.473035710959871;0.477101885617697;0.482564712055073;0.48955539848828;0.497968431956907;0.50705141093331;0.516539800899164;0.525515809340169;0.534221407024579;0.543809238539024;0.55379613735354;0.562845177738219;0.574875487614665;0.592639352715452;0.616796846271536;0.649809180464574;0.692039964216006;0.74180058419463;0.79672472676326;0.851298961494958;0.901104421818461;0.942765362486347;0.974640875470262;0.997967920390448;1.01401904300931;1.02411267402105;1.02780836637791;1.0276263943092;1.02237835159336;1.01406035571515;1.00434475812998;0.993010980002336;0.98179439636245;0.970987763861927;0.961072801473118;0.952714616195157;0.946332008150454;0.941470349451071;0.938000097073973;0.935575332921137;0.933538774774202;0.931344463413238;0.928675572375009;0.924409976247614;0.918467634312617;0.91042196835507;0.900366312183612;0.888741520054546;0.876036044758815;0.862808621274019;0.849451088917133;0.83743917776535;0.826384895409285;0.815913312221838;0.806623249987233;0.798297884095634;0.791392589921265;0.786123002978226;0.782106169997002;0.780658883102921
0.490720575362322;0.460377987355902;0.431816587113399;0.403534752001503;0.378148385771557;0.359354516169746;0.346775712178306;0.339137840853106;0.335489930871397;0.333888237265443;0.334062995947623;0.335427404298743;0.336967611069205;0.338507997035249;0.339828999897976;0.340888322053225;0.342509878535593;0.344044093483894;0.345216832672896;0.346717908171493;0.347993796400255;0.349431395725008;0.35078229974878;0.352116412665178;0.353444444303478;0.354796308480475;0.355952648697161;0.357313640634527;0.358855800947731;0.36051191699312;0.362033908651318;0.363758407415578;0.365557898032103;0.367352125743125;0.369493714947016;0.372521077676502;0.376950324124205;0.382695968751677;0.389817077848248;0.397617990153945;0.405441278136585;0.41313656733812;0.420017245033526;0.426388405542722;0.432517922658093;0.438396604472539;0.443346586334704;0.446665161051236;0.447864455702089;0.447829500389839;0.446105934167418;0.444082985979548;0.442066532580126;0.44087544986565;0.440349361107377;0.440321110255383;0.440676654275812;0.441312304896676;0.441977965149203;0.442602889457186;0.443106416695317;0.443321394222171;0.443933892137686;0.445034165180971;0.446540556321005;0.448966807494786;0.452156649521688;0.456392179312477;0.461735760998643;0.468197526392487;0.474878712012974;0.481968131241107;0.488417141113009;0.494553445549899;0.50166862814849;0.509065245303379;0.515353433079468;0.523586642847722;0.535911846218865;0.552349323943839;0.574894906149995;0.603393757904888;0.636275982824073;0.671499504174014;0.705311833327876;0.734803750417128;0.758606196763405;0.776198109929213;0.788612447063141;0.797261095948426;0.802660988392328;0.804833457590001;0.805005840553364;0.802728541473141;0.798602056256771;0.793995744215233;0.788378412861636;0.782865474360517;0.777536377434899;0.772659462031364;0.768618347812344;0.765791590440324;0.763724552892358;0.762413286925349;0.76165952993446;0.761023044806141;0.760286198880042;0.759215447831957;0.757215156753056;0.75411168191341;0.749850906255599;0.744199665436381;0.737520670180456;0.730264361846704;0.722394452577727;0.714235494198809;0.706955602388525;0.700248492946146;0.693801293473074;0.688119046962096;0.682992364005249;0.678600019309737;0.675213561659254;0.672502317919139;0.671645068450921
0.490897524824782;0.460426003256649;0.431771514827292;0.40358369646206;0.378191957398151;0.359415517274287;0.346588817819165;0.339165435760346;0.33522465447663;0.333678806910681;0.333878775129326;0.335046046119653;0.336547758191055;0.338144549442895;0.339527176489913;0.340644182622612;0.342191098586626;0.343654809319369;0.344850227560311;0.346372691867706;0.347587227460337;0.348914068064347;0.350265404358863;0.351642916856905;0.353050072982114;0.354308394395809;0.355509416482209;0.356827336298238;0.358321482077141;0.35993477080149;0.361506450040668;0.363201388357146;0.365011953380563;0.366789976013785;0.368931428620047;0.371897083158339;0.376303616499181;0.382031758024102;0.389187328398695;0.396963077111317;0.404821127473963;0.412524538052945;0.41942054553546;0.425739948304941;0.431944434748934;0.437825065480099;0.44276681486337;0.446034732076847;0.447249920403178;0.447228635992099;0.445513868559613;0.443382870366189;0.441337380733793;0.440138003108527;0.439557716657834;0.439485668427923;0.439859301883681;0.440464179030601;0.441141971506204;0.441713211787525;0.442222560941743;0.442454663660396;0.443015468893881;0.444119090080722;0.445617942831161;0.448021850355509;0.451251255125493;0.455508786803027;0.460802667127402;0.467217984965246;0.473982685155643;0.481076437293579;0.487466352536683;0.493660463968594;0.500762837552887;0.508131738026402;0.514439973710452;0.522689723556626;0.534954750345519;0.551357978984234;0.573797408837874;0.60218074197905;0.634969950424859;0.670029676874422;0.703666798997556;0.732974782662246;0.756720798715366;0.774271361315373;0.786779577500872;0.795400115754259;0.800751795433684;0.802935401959912;0.803150917454997;0.800914602106471;0.796959765960335;0.792294288169114;0.786782501370714;0.781345565845064;0.776074908873629;0.771265065712403;0.767258699645904;0.764446051665205;0.762354737283327;0.761100456138192;0.760427264163182;0.759759609950489;0.758989247133844;0.757991331451904;0.755963973357184;0.752883162187533;0.748700588381152;0.74308463007631;0.736472577789318;0.729268539401424;0.721438674056059;0.713323519500122;0.706105125498693;0.699424948863613;0.693021787104297;0.687433180746261;0.682335856499158;0.678076539863639;0.67487365207346;0.672439803989679;0.671987969277753
0.496546536588317;0.465542734250456;0.436177427636374;0.407465291588306;0.381531312287904;0.36259883956805;0.349754370670886;0.342137911768289;0.338249482632094;0.336717272557694;0.336905531774244;0.338257431715513;0.339763186602359;0.34137386764675;0.342776297024669;0.343813414153007;0.34531810251879;0.346784494428531;0.347974828262503;0.349494903253061;0.350672931393275;0.35195211001768;0.353315886539472;0.354628139248028;0.355964378474988;0.357277354068332;0.358395620690673;0.359710211662068;0.361188286813765;0.362829904736197;0.364361563328405;0.366057815908388;0.367868297607888;0.369675371180751;0.371817127690428;0.374836799088384;0.379379409470737;0.385275798338837;0.392669492384899;0.400660681883539;0.408696151486261;0.4166887549236;0.42368687409277;0.430194585671657;0.436521287805964;0.442573168055092;0.447582700958422;0.450949262613144;0.452189863533202;0.452119871043107;0.450300952277393;0.448142858865391;0.445944866716957;0.444691239455902;0.444054732689499;0.443944876253107;0.444250370085489;0.444886559014225;0.44555736105985;0.446124616035764;0.446653986458284;0.446864408578504;0.447404659019844;0.448522310537113;0.450040380968187;0.452482995032611;0.455840391209281;0.460178458554433;0.465717075817854;0.472356439042281;0.479288309708786;0.486654927899301;0.493276522358825;0.499700389605193;0.507018889072839;0.514644897828258;0.521198817953724;0.52975243676732;0.542464769241237;0.559504953815615;0.582718009521937;0.612099999428695;0.645958247470141;0.682328542000663;0.717097736355378;0.747445740205566;0.77195579583206;0.79013179570018;0.802929884401365;0.81187929577606;0.817377951569454;0.819612307560913;0.819809301039378;0.817411322230506;0.813179226230175;0.80824614699008;0.80246362816435;0.796719559506342;0.791231970604913;0.786145297478775;0.781960514319994;0.778983982739116;0.77679931348895;0.775424727161075;0.774669004092892;0.774010081693571;0.773174887095357;0.772068583344924;0.770029576990455;0.766800250706286;0.762380870053811;0.756603992053558;0.74967199002866;0.742127835330144;0.733989506336779;0.725676780709549;0.718243940802441;0.71133524030624;0.70471929896493;0.698870562285343;0.693613149148352;0.689221323732855;0.685983332149499;0.683568959377587;0.683152929536127
0.536461157607226;0.499857284703808;0.468085984631105;0.435411216273666;0.407009398027584;0.386147822807187;0.372287256106365;0.36487620322451;0.360680487219243;0.359109803097907;0.359502066115445;0.360744465389493;0.363049270075866;0.364374125426161;0.365404851512557;0.36675480896308;0.367952798425142;0.369433315318008;0.370636483413866;0.371683935348003;0.373079113415587;0.374060538972943;0.375207572843009;0.37631549582264;0.377647211541409;0.378798263911581;0.379979043107058;0.381292172374158;0.38267007682984;0.384001474110414;0.385616546087181;0.387134376504888;0.389115190204938;0.391061689383927;0.393555752741046;0.396835483514414;0.401637872853736;0.408563729160465;0.417076631091205;0.426359077804302;0.435905758369658;0.445030655927648;0.453038296517599;0.46073629137422;0.468114952105836;0.475157219289577;0.4806552471783;0.484423511450251;0.485891412203609;0.485241393445886;0.482889385266649;0.480201922403241;0.477546767692241;0.475636207747013;0.474758055054218;0.47442101530125;0.474651811376488;0.475120256230285;0.475564799642686;0.476208285701377;0.476568445819722;0.476563631309935;0.47730608634743;0.478225983727889;0.479959503219059;0.482682147107554;0.486602857613527;0.491792653885159;0.498280482109346;0.506037958041833;0.514483847454884;0.523343254405879;0.53188095575827;0.539881430261169;0.548707529154539;0.557580597360222;0.565683922545399;0.576487731244049;0.592234285247154;0.613628577017421;0.642819155695908;0.680212934594307;0.724084509501739;0.771959392248224;0.818965467221781;0.861289414548861;0.896079343045891;0.922411187690777;0.94122144420992;0.95422222836058;0.962267213341565;0.965352696285348;0.965248049668958;0.961077169164881;0.954320732919751;0.946267149098822;0.937443209342642;0.928276649570433;0.919573753118342;0.911779542281404;0.905245606697462;0.900446766022377;0.896848552315333;0.894404327240562;0.892755763155099;0.891289559316762;0.889784819725946;0.887786240737434;0.88450032243845;0.879462919586307;0.873102999670626;0.86471942734532;0.854721530241464;0.844053645980012;0.832703641886444;0.821153360598563;0.810800904394485;0.801336865949322;0.79246445729168;0.784380147047953;0.776967415130161;0.770953300926114;0.766657354234245;0.763420923306324;0.762262782535912
0.543347214609206;0.505871297385903;0.472279512428169;0.438597935739762;0.409101236040572;0.3876692109658;0.373536445989072;0.365899348820784;0.361699677276283;0.359637041207755;0.36015924705774;0.361499261848753;0.363770851719983;0.364985685584367;0.365937875917792;0.367270675648774;0.368437425080141;0.369892522598301;0.371077879389484;0.372042001615547;0.373360144588228;0.374358968019966;0.375442663142514;0.376499615227859;0.377736538685961;0.378868188931938;0.3800209234614;0.381354766647609;0.382721862217239;0.384124194860304;0.385659818025551;0.387099534979148;0.389120509721503;0.391026958807111;0.393500402487112;0.396740949789488;0.401717050040978;0.408735440833436;0.417464626855266;0.426946009196619;0.436722463674831;0.446203840939554;0.454591436273947;0.462542841888072;0.470284957799474;0.477589546267059;0.483298475801325;0.487278391568641;0.488654963160974;0.487950035529342;0.485371106929677;0.482476194933246;0.479606610732504;0.477527857775084;0.476512236490975;0.476134053628397;0.476303076791981;0.47667737210099;0.477113871776225;0.477702773317741;0.477980226086959;0.477959078102728;0.478606647106098;0.479506641703345;0.481322112003567;0.48411649069552;0.488097797730773;0.493447617195596;0.50020078492933;0.508222283261735;0.517091988489394;0.526454641325246;0.535402265015098;0.543901155335998;0.553175572874402;0.562593046118175;0.571136591700743;0.582611353834326;0.599296267804419;0.622130842693129;0.653374209993808;0.693422942377138;0.740550193178252;0.792409521995785;0.843730474099028;0.890191375094846;0.928792408612467;0.958349183759355;0.979627528611868;0.994234956754625;1.00343220591513;1.00713918287621;1.00705129058069;1.00218966456579;0.994637568231264;0.985647499348991;0.97557344634781;0.965356706235857;0.955610779306454;0.946760935697329;0.939376184840413;0.933873560401349;0.929803598644073;0.927045359667764;0.925062207818988;0.923219425230122;0.921515994078086;0.919312557416393;0.915535258920688;0.909990387990538;0.902827752311778;0.893440262137397;0.882383726467558;0.870556320743136;0.858060079778608;0.845353002271681;0.833943356401038;0.823486522483894;0.81379854684834;0.804920194805166;0.796881677487555;0.790342924697271;0.785822669624464;0.782580546724519;0.781680908219282
0.542595787159696;0.505142890691796;0.472250008179899;0.438388977414061;0.409525097360465;0.388109589788865;0.373930560812829;0.366267916801527;0.362035008192386;0.36006868637885;0.360603666076099;0.361859716529982;0.36400063363343;0.365177144782454;0.366155587973738;0.367627752823403;0.368878824568171;0.370209795448208;0.371366299038951;0.372427083472963;0.373713024353734;0.374668201753026;0.375717594690939;0.37681327319436;0.378058662739345;0.379198224873048;0.3803094033572;0.3817041644835;0.383061240747599;0.384379316797432;0.38595724453963;0.387384915364495;0.389395723987;0.391302635749613;0.393807551072465;0.397037180921997;0.401988530388515;0.408943856230483;0.417694772863725;0.427115740738364;0.436908886736228;0.446265483786129;0.454573499894555;0.462448613527307;0.470158646459494;0.477461875134131;0.483105044325888;0.486951487966065;0.488339322134275;0.487687901397666;0.485111984108299;0.482229866690789;0.479415733103613;0.477426019207364;0.476382670475972;0.47600966860027;0.476220637277465;0.476647958011091;0.477052902147417;0.477650982627899;0.477954770306265;0.477955945155608;0.478554356364142;0.4795116199572;0.481324216884133;0.48414336952049;0.488116906279351;0.493413798642102;0.50012302378442;0.508113967066589;0.516875483831484;0.526096744751928;0.534992410180493;0.543404428500008;0.552565349144458;0.561879810202396;0.570381903815699;0.581739322086089;0.598229949131031;0.620843201436686;0.651705653627164;0.691318012055838;0.737927124696449;0.789192605518614;0.83981278590985;0.885725707791878;0.923719736863183;0.952873558153292;0.973813737675372;0.988301020875884;0.997325182719926;1.00091619792836;1.00089487308122;0.996147142894577;0.988753600898938;0.97996953701867;0.970053627575365;0.960059890090456;0.950390900665824;0.941749019342351;0.934582008853661;0.929292173653588;0.925265454250838;0.922523443830941;0.920585383381076;0.918850798703727;0.917250523272719;0.914942154621116;0.911289958433112;0.905853228397459;0.898762421332115;0.889615028685665;0.878699234091233;0.866956981276482;0.8546009496873;0.842025228430271;0.83082302683134;0.820490146702452;0.810848944654132;0.80209037749435;0.794104942550768;0.787681327716275;0.783225983372021;0.779975639448522;0.778970929094902
0.578820540140851;0.538746752275476;0.503176310575495;0.466667922515626;0.436629400834052;0.414001642264437;0.398616297174889;0.39078573809692;0.386148668129911;0.384661966957374;0.385005921801244;0.3864410371361;0.388621184822434;0.390101371095229;0.391392784475965;0.39305205683096;0.394137841032429;0.395266702092188;0.396552485185396;0.397411576758013;0.398610207619421;0.399589329760008;0.400543138417847;0.401455042947245;0.402480870624584;0.40348075451353;0.404372517624622;0.405540929203207;0.406954523414553;0.408406432754602;0.409810096011676;0.411350985152414;0.413331582094815;0.415153018014547;0.417733975726333;0.421188366956602;0.426640729079539;0.434045391058682;0.443247152284842;0.453966944379147;0.464587636275363;0.474716850152393;0.483987813162363;0.49259214119522;0.500926035027519;0.508891531630321;0.515150165397129;0.519175283024126;0.520540440337847;0.519498070952935;0.516676783003778;0.513035235547815;0.50973607584243;0.507207633553553;0.505838446189858;0.505166794527809;0.505128020945979;0.505499917413808;0.505967777338714;0.506345550105163;0.506536232806874;0.506566766541428;0.506898453778866;0.507728642050866;0.50961937793712;0.512582888445025;0.516749144116026;0.522374677260897;0.529708169663421;0.538440550206418;0.548134539277898;0.558287115978206;0.568270295893;0.577675807692922;0.587868195919424;0.598129916803108;0.607580943437991;0.619956355910449;0.638103954655904;0.662840954913837;0.697035195727297;0.741403898197921;0.79466812815015;0.854290018801753;0.914600237376385;0.970419413808935;1.01781210520967;1.05448183328321;1.0815389392608;1.10041410182671;1.11224568224464;1.11708289615038;1.11720461051508;1.11177089933826;1.10243640830431;1.09106563844401;1.07856314653134;1.06597781676199;1.05385430572049;1.0427168549057;1.03352199532323;1.0265416077913;1.02118955096081;1.01758646835454;1.01517832127926;1.0129236500886;1.01079187037436;1.00800032868885;1.00349769679961;0.99663124814802;0.987715059783781;0.976258359915293;0.963028354850812;0.948675338037638;0.933798229775549;0.919043228614479;0.905769669315389;0.893690427665068;0.882016846207595;0.871646942156485;0.862683875230621;0.855178672876772;0.84999278854118;0.846861943071759;0.846378401600296
0.573422379604818;0.53442651727073;0.499233882719337;0.463475393316615;0.433763378619662;0.411304404524718;0.396319317972151;0.388404238268466;0.383827810432808;0.382443300223793;0.382631399060842;0.383842945424305;0.385980270065739;0.387475844273053;0.388799008810536;0.390359496116325;0.391437063656643;0.392696309201427;0.393912850789218;0.39473030234209;0.396044006463951;0.397082797887946;0.398114412920518;0.399075761082275;0.4001171461648;0.401086770424683;0.402105369558912;0.403283627206967;0.404672789087123;0.406085768383378;0.407606260649166;0.409157942389064;0.411150589578203;0.412929165049749;0.415444108979223;0.418906468707604;0.424234212010811;0.43141145665465;0.440338108429167;0.450735381168226;0.461062998129119;0.470919506511452;0.479989798218012;0.488372881530174;0.496576784747254;0.504401968659634;0.510503326885495;0.514409875193533;0.5156930411299;0.514800892420852;0.511992632358709;0.508544452661507;0.505326094379309;0.502837914449777;0.501488752028958;0.500877041822887;0.500858464384362;0.501303164896188;0.501745977107754;0.502143693758932;0.502350490272484;0.502350628353785;0.50271738908721;0.503559554417633;0.505390748421932;0.508282470600835;0.512315492616983;0.517843737217017;0.524919941439105;0.533385322365075;0.542866127036426;0.552747830021898;0.562336621829841;0.571533939725384;0.581397956167564;0.591350701527291;0.600516648495548;0.612487200299917;0.630160802213465;0.654122858146498;0.687390468982533;0.73039016755282;0.781814907477279;0.839377827246688;0.897355373107488;0.951051556216673;0.996217313325462;1.03100409314035;1.05676495113871;1.07468569061258;1.08586885783738;1.09041097205004;1.09051757172508;1.08531240042571;1.07655608607823;1.06595992074258;1.05404214910224;1.0419857585757;1.03053926256757;1.01985522150914;1.01108069257;1.00442991058633;0.999217672105983;0.995664866610161;0.993275169685806;0.991055935074479;0.988957204186504;0.986285796184808;0.981853121924602;0.975268930852766;0.966852189581353;0.955814718360146;0.943056673400632;0.929398470925902;0.915182514349442;0.900847876343189;0.88801001403811;0.876310678353493;0.865008000085974;0.854934492620571;0.846286025600343;0.839161860618827;0.834215442519341;0.831144680357617;0.830778608516705
0.574010530661302;0.53522811881141;0.499968092555113;0.464098798652441;0.434430785610585;0.4123693925051;0.397191604484069;0.389321741683689;0.384751274221121;0.383197129422291;0.383563558618052;0.384982947874089;0.387113725415165;0.388479020530781;0.389692311949384;0.391332897114565;0.392463594408019;0.393599823035854;0.394860836455028;0.395775459386509;0.396955494101174;0.397989521065235;0.399032655481205;0.399976186944246;0.40105899306838;0.402037410494649;0.403013753013835;0.404200098689511;0.405649776060251;0.407024475903211;0.408503317932435;0.40998777100393;0.412026629828311;0.413839548727726;0.416264869176126;0.419818406338455;0.425051776153557;0.432344304191118;0.441377217097953;0.451766636490176;0.462111423367998;0.472022673675565;0.48113534447129;0.489509548113445;0.497671768381556;0.505489486069596;0.511548985267292;0.515508543792894;0.516874341612928;0.515948705160325;0.513178902679344;0.509680461377201;0.506469038266959;0.504057626010096;0.502750972495204;0.502057028644355;0.502056614680533;0.502412493192596;0.502916439789424;0.503259048224081;0.503505832843438;0.503563016087162;0.503975151894841;0.504780464099861;0.506609433711381;0.50943716161759;0.51355818571159;0.519024740286659;0.52613247738392;0.534603911695468;0.544057230552308;0.55382676135852;0.563430929015304;0.572585792392295;0.582405094255261;0.592270630738346;0.601298039016249;0.613272800001879;0.63065257500468;0.654308948481018;0.686886702668244;0.729127695579497;0.779534158838436;0.835699500678766;0.892090294510588;0.943904299247699;0.987650470791755;1.02147976112843;1.04613858223056;1.06341800224769;1.07427047468682;1.07879817621824;1.07910273270269;1.07427990466289;1.06595597765101;1.05588895664412;1.04452844074112;1.03317346727684;1.02218209447442;1.01195429533165;1.00361876711604;0.997229803431693;0.992246676034411;0.988973716745367;0.986753129489152;0.984729963335345;0.982778785462781;0.980228813722898;0.97616338538312;0.969786984380648;0.961637391828838;0.951136149261461;0.938832997464468;0.925585138346385;0.911782732408296;0.897970588999703;0.885621902736479;0.874318712123921;0.863362495643471;0.853696730834516;0.845314068380014;0.838381078006005;0.833628802628578;0.830726253687826;0.830478977147036
0.541776703465848;0.504712846472554;0.472225272538264;0.438724098445525;0.409995361755715;0.388575916702175;0.374509648238689;0.366835151662542;0.362739586469659;0.360971853499041;0.361607995962446;0.363217725701862;0.365579867001677;0.366936940423273;0.367982793076481;0.369321892928372;0.370679715706524;0.3722948297885;0.373460806179868;0.374449678448549;0.375800128741435;0.376798484622783;0.377950293736095;0.379179923399722;0.380445580738531;0.381631062510258;0.382850618644378;0.384175102073263;0.385557872004081;0.386920499982153;0.388469884507133;0.389946356504033;0.391950239907205;0.393859928843424;0.396328620623229;0.399621046057888;0.40452086369951;0.411528507618037;0.420165091092929;0.429535170101158;0.439255385436331;0.448602950143732;0.456837099342935;0.464717782068221;0.472377058205789;0.479628625353398;0.485327554991625;0.489184042403548;0.490630245989622;0.48997591930421;0.487526666692743;0.484739898300964;0.481904632117576;0.479839917626821;0.478843341447281;0.478446265215854;0.478591351412606;0.478999551896901;0.479405254949246;0.480006979437889;0.480281577716853;0.480224098444773;0.480796605866808;0.481584116460409;0.483287374943953;0.485976639039599;0.489809808524319;0.495017936097555;0.501528580241865;0.509389023231753;0.518053853233161;0.52724018747255;0.536025532476576;0.544288026780165;0.553310949615665;0.562384184471648;0.570417434752757;0.581221412884946;0.596884971911657;0.618248661122193;0.647543673167328;0.68556582633904;0.730372426507694;0.77982624950541;0.828656537714785;0.872584824425724;0.908588771193693;0.935704527215679;0.955110358045136;0.968205891922754;0.97626905099001;0.979219957741377;0.978939767609827;0.974449605659176;0.967743167695883;0.959569354845314;0.950499002600149;0.941131933912009;0.932197005782088;0.924030992723803;0.917218936757621;0.91237969842447;0.908715108233879;0.906273015085246;0.904564920726296;0.903116392899191;0.901708697442128;0.899643586916934;0.896310510094734;0.89109281668331;0.884468034506894;0.875802041177204;0.865344220693876;0.854273872628785;0.842573152975601;0.830725665467176;0.820111129547902;0.810344927084663;0.801337140815507;0.793016080326898;0.785259176703867;0.779159984165823;0.775166117220016;0.772355437079396;0.771571921257291
0.547478954722621;0.509813470446477;0.476187353832427;0.442453581028188;0.413045163228734;0.391224906854775;0.377037645534662;0.369336022469869;0.364987597745798;0.363333507932157;0.363935973219318;0.365523435190508;0.367888762723899;0.369304917756203;0.370476642876718;0.371931544209912;0.373248120586874;0.374712763549434;0.375840988900774;0.376911428295196;0.378275481903177;0.379221206792637;0.380315033122493;0.381412248467297;0.382770718060974;0.383900652418594;0.385073164406692;0.386387643434573;0.387668150606641;0.38902753395553;0.3906152124523;0.39209793724385;0.394039588488763;0.395975367973541;0.398419408556811;0.401723292839781;0.406775647064798;0.413975842927989;0.42281323253852;0.4323959005356;0.442332223037252;0.451863861062777;0.460321578588791;0.468427208855772;0.476188133883979;0.483689168777999;0.489382747430126;0.493354554884242;0.494755030151497;0.4941019155556;0.491562671014907;0.488646667961835;0.485674365407076;0.483520288111502;0.48245047426444;0.481992901051185;0.482121779560698;0.482450078573741;0.482913547488487;0.483451405773249;0.483710333084622;0.483587991189178;0.484126553509065;0.48496682608806;0.48666531606901;0.489329277056476;0.493268679310233;0.498512956117832;0.505172909673943;0.513173240020808;0.521971150237951;0.531322642578122;0.540280105263203;0.548721356578013;0.557871100703312;0.567073659928787;0.57530534616484;0.586217917157865;0.602122881722316;0.623649555554973;0.653447335129597;0.691976069710087;0.737487448897028;0.787937906185087;0.837756803407976;0.882798329651146;0.919770475115133;0.947988617298827;0.967951675479472;0.981781486133433;0.990194844033497;0.993345305266376;0.993154597175864;0.988887773629754;0.981867700422106;0.973430784082002;0.964126187662678;0.954536974044491;0.945335246796315;0.936986943398128;0.930027190033898;0.924940890181996;0.921044645819942;0.918501111705781;0.916732507487264;0.915095712356301;0.913672920635837;0.911558062989386;0.908005423128408;0.902629531587931;0.895831556477164;0.886974981511625;0.876254169975926;0.864886438910131;0.852862473180301;0.840669868721122;0.829713342732784;0.819580487303585;0.810288244157956;0.801791182291012;0.793819300980058;0.787648300588206;0.783765988783607;0.781202526715748;0.780742758600543
0.55566363730114;0.516227757213642;0.48125094673293;0.445500058481784;0.415743991997216;0.393087808677495;0.378403653216645;0.370610281029276;0.365959460654372;0.364345182898758;0.364789281007419;0.366397236896918;0.368838817257942;0.370212138182929;0.371191897114526;0.372458515000367;0.373771762837716;0.375170378191962;0.376234619549482;0.377231802003813;0.378487218449337;0.379400632359589;0.380470818909442;0.381551699621466;0.382737587747379;0.383837059531603;0.385016039145433;0.386336899069873;0.387585450567724;0.388867160311466;0.390431307745066;0.391808266473332;0.393847882472276;0.395750288233705;0.398264221916276;0.401645100048079;0.406705734640685;0.414000402959959;0.423036683416327;0.433002352365949;0.44313183730097;0.453071331487788;0.461925438687464;0.470287907640286;0.478386022938615;0.486189579774356;0.492187829699163;0.496325189641918;0.497825199181413;0.496931335744851;0.494171695134651;0.490974996519218;0.487811403882402;0.485449856734467;0.484225207910022;0.483641817377253;0.48368348104643;0.484008197801964;0.484394495457805;0.484836570160586;0.485041522007888;0.484906468433541;0.485349994316718;0.486166963997808;0.487880580617797;0.490683607946157;0.494744310983608;0.500245991711753;0.507212800051393;0.515624557276894;0.525026712534208;0.534971719195001;0.544626689052625;0.55375836554008;0.563541242820749;0.573436040929327;0.582406422505971;0.594365628860636;0.611809247753181;0.635705342165695;0.668567236869834;0.711473335025737;0.762556804624539;0.819731582604969;0.876843459634187;0.929171144551102;0.972626741150994;1.00607217075928;1.03019833338344;1.04648278859491;1.0567005152195;1.06053186734959;1.06020967250059;1.05463749021533;1.04598125811132;1.03554952964782;1.02409899338123;1.01256635937795;1.00127291328778;0.991064869446008;0.982611853454037;0.976326211585233;0.971636591491617;0.968450564421847;0.966198813642328;0.964237363620994;0.962396632804646;0.95972726334734;0.955542951576968;0.949139807847935;0.941070501079076;0.930480269218171;0.917919404348374;0.904523785804904;0.89049536030976;0.876360006704861;0.863739331006933;0.852154627467163;0.841469854344162;0.831627460404857;0.822565665073798;0.815534858650546;0.811068705280723;0.808065215152039;0.807443139340973
0.522840963303904;0.487219445411326;0.454638569187793;0.422608972768893;0.394267443550291;0.373227298797026;0.359390877360191;0.350993712923149;0.347022551398234;0.345373219394784;0.345628695206535;0.34706117797021;0.348670610452491;0.350424593194798;0.351819501968675;0.352812408529652;0.354340210985265;0.355918742549472;0.357194410607236;0.358614046340982;0.359623919549494;0.360762604217969;0.36190168414621;0.362953797476966;0.364149670380224;0.365175735205512;0.365927991676909;0.367027428119224;0.368426367942756;0.369843160468329;0.37136057983245;0.373106900732178;0.374923799502296;0.376799105112169;0.379199680705178;0.382704250299462;0.388150244698713;0.395219117559306;0.403976551780289;0.41314994790553;0.422601043403881;0.432125293652309;0.440925312821885;0.448986467644689;0.45665895233831;0.463596112963193;0.468911101197652;0.471979281123884;0.47278732527805;0.471890835549649;0.469299550561561;0.46631117454252;0.463451909920322;0.461720545092012;0.460551396174824;0.460164800701283;0.460166554896913;0.460781962826515;0.461456426579413;0.462095565005148;0.462552920997951;0.462588073724175;0.462995246260917;0.46410183321342;0.465665806549792;0.468380598643661;0.472116426689889;0.477112438631163;0.483409499983835;0.491215569640701;0.499663747734212;0.508663383893708;0.517213283974675;0.525422314337064;0.534436477987967;0.543594791023851;0.551786675394383;0.562419067053162;0.578047132708052;0.598905641330171;0.627125355323007;0.66302682142401;0.704910556701605;0.750346300369024;0.794800780468332;0.834496302689961;0.867203219308167;0.891983941184602;0.910390521257898;0.923530686777932;0.932332259846936;0.936821317964309;0.937961317570585;0.936912573145061;0.933595424132981;0.928751862508293;0.92182277196262;0.914389439308344;0.906671137690322;0.899030817015172;0.892162114671915;0.886680475134374;0.882244951008966;0.878919358602991;0.87634399887742;0.874177613687288;0.872288261867291;0.870086896569325;0.866646983899619;0.861803756509171;0.855379096569479;0.847228084182894;0.837844691976026;0.827681145906723;0.816975993842955;0.806122442461729;0.796431921869694;0.787436879940154;0.77859489156705;0.771113770307225;0.764833279098183;0.759394347016643;0.755227744145872;0.752824408382578;0.753019137664461
0.524278558432395;0.488599308085344;0.45590838030346;0.4235463467771;0.394917222940939;0.373666100888814;0.359631076768489;0.351452745993451;0.347247502861292;0.345767128677271;0.345977847879293;0.347558318779613;0.349196576224267;0.35092530901204;0.352407367131143;0.353365756946767;0.354935532280435;0.356548113140861;0.357660443960458;0.359021744107093;0.360098937516154;0.361327679086293;0.362413115470225;0.363476799848887;0.36455656803937;0.365535325569541;0.366397539799485;0.367517602472973;0.368844198737425;0.370321445900039;0.37176856857478;0.373455982921086;0.375243018909648;0.377187498535098;0.379577946425325;0.383114017167332;0.388627242182366;0.395895717687207;0.404801272559684;0.414150835294027;0.423831826122313;0.433504055819243;0.442440830229703;0.450684992100936;0.458454327815227;0.465601347841191;0.470944681685209;0.47407712104478;0.474872749657379;0.473945563244051;0.471272220359959;0.468211311573899;0.465310007264263;0.463483852700566;0.462239318315657;0.461807320633857;0.461795120705896;0.462403774053977;0.463123780256155;0.463760704360827;0.464158229330176;0.464200341520469;0.464581307221563;0.46563712885634;0.467316693192424;0.470026091122802;0.473860337132262;0.478917645609183;0.485331405444295;0.49326597484356;0.501874095081018;0.511057889860658;0.519775389133989;0.528137185891201;0.537284184906811;0.546587165307881;0.55492676988661;0.565692070385244;0.581467036252365;0.602576413809309;0.631066154354441;0.667472266395003;0.709777902982107;0.755839449086712;0.800914602106471;0.841316429661605;0.874680445569256;0.899969440591945;0.918677900733215;0.931986405440362;0.940935531055547;0.945489978136302;0.94681049894301;0.945851743641471;0.942421752634035;0.937445841591081;0.930422544700031;0.922910932216466;0.915057496403383;0.907360398438753;0.900447456677788;0.894901823957302;0.890421115648594;0.887050313507921;0.884497326549955;0.882303237924448;0.880330803662776;0.878136288831217;0.874660269044805;0.869759212646864;0.863279432843593;0.854955950095973;0.845493254045599;0.835095999581018;0.824132025697116;0.813154370084728;0.803318491867061;0.794194429971468;0.785255203574003;0.777624857176349;0.771100438323979;0.765511569177033;0.761237525574477;0.758725536669031;0.758831948747969
0.526608366212782;0.490257030055436;0.456524116424708;0.423977633521907;0.395145646922359;0.373723498116778;0.359694502835118;0.351264706070958;0.347166259630109;0.345489824738081;0.345802562415741;0.347277357046352;0.348803326893348;0.350428291428485;0.351900936871171;0.352974883341512;0.354531945456156;0.356063552115629;0.357202022159835;0.358586675146276;0.359629486265186;0.360792804058094;0.36185342173732;0.362892898325969;0.364068818628159;0.36499846703387;0.365801231102404;0.366896302922955;0.368317029025355;0.369760631377502;0.37122691483222;0.37292749366195;0.374722438076984;0.376636360443843;0.379014413284729;0.38259943223123;0.388065011755772;0.395227533491727;0.404031601915778;0.413418770993029;0.422963413821197;0.432679966477453;0.441576813897005;0.449684796733257;0.457486904479746;0.464578522467111;0.469987639698509;0.473070431755024;0.473883355586706;0.472945114373229;0.470239301948816;0.467177489241213;0.464208941508871;0.462343197735828;0.461144116717796;0.460698151863581;0.460704424579274;0.461246855189232;0.461916632186505;0.462568166096114;0.463003822418617;0.463002813450098;0.463424009255972;0.464472841575732;0.466078797619015;0.468783399389001;0.472547074744586;0.477633372591348;0.483969150143046;0.491831872257301;0.500407345465865;0.509546650700728;0.518183437278672;0.526568360387191;0.535678897295601;0.54501984405056;0.553322750505433;0.564178877670676;0.580021629154956;0.601309657861366;0.630116881286357;0.666974528442199;0.709939999856051;0.756934157356261;0.802960783632135;0.844408927387721;0.878665075511479;0.904673005611885;0.924013127747209;0.937748656624379;0.946748641814253;0.951402841598394;0.952678394917509;0.951154777466606;0.947331062462963;0.942067012500197;0.934598819609454;0.926639861231287;0.918336989176276;0.910177871450071;0.902873241281807;0.89702085299721;0.892315619266159;0.888721351861131;0.885884300393164;0.883538705675731;0.881484956936471;0.879012698792695;0.875306709118925;0.870239556787042;0.863469042184832;0.854975231630377;0.845123707576621;0.83453368531979;0.823398889087309;0.812167770517725;0.801992366300277;0.792464187984065;0.783323013505208;0.775694114428168;0.769171109484516;0.763701615777575;0.7596789410554;0.757495095713854;0.757856277298917
0.555167315407491;0.515390711514726;0.4812405557375;0.446062993179001;0.416119476842919;0.393867027754322;0.379259894037428;0.371447397322284;0.36695311561071;0.364903772468814;0.365446054914262;0.366791390839779;0.368952553275641;0.370192479974775;0.371319424192486;0.372699087579282;0.373911555409184;0.375482664865752;0.376699941476556;0.377759754316096;0.379029277507111;0.37996268794585;0.380927967028711;0.381897698347464;0.383106986935997;0.384001999832294;0.385045760207128;0.386301487244707;0.387499798412406;0.388756804896987;0.390353948015089;0.391758062242454;0.393793247769041;0.39570340679962;0.39841571299229;0.401858685078459;0.407247600948359;0.414848462835444;0.424029513573388;0.433906661930292;0.444127663736377;0.454249535627705;0.463344861922617;0.471959453329831;0.480259267507005;0.487894470711524;0.49350362651224;0.497021075816083;0.498086279065454;0.496923017315684;0.493958191406315;0.490676752516678;0.487567903978847;0.485274448782143;0.483988872081119;0.483419017663123;0.483460659962659;0.483862084914267;0.484378597105977;0.485045104550698;0.485374028252555;0.485278962557426;0.48585192899567;0.48670980155472;0.488485879437214;0.491322309453567;0.495362655885283;0.500848006324126;0.50769704797946;0.516045027688455;0.525377175979748;0.53529797746349;0.544946728654896;0.554121452868716;0.563985483772968;0.573873267567528;0.583000225180674;0.594969185773976;0.612373689957463;0.635952627901372;0.668037909199502;0.709451666101429;0.758165247546168;0.812012804209883;0.865542062947092;0.914378741627019;0.955140515901843;0.986579610146299;1.00977954878376;1.02593674165877;1.03648539204345;1.04151973487611;1.04235555769162;1.0394066574096;1.03345927527935;1.02561520610777;1.01598018501074;1.00577658057007;0.99525786545632;0.985268665377054;0.976494447202514;0.969672353820487;0.964104195791013;0.96001631732745;0.956800858687446;0.953914350252599;0.951463423380105;0.948514453147093;0.944213944394939;0.93787134739999;0.929889325867484;0.919842327930372;0.908034238086627;0.895369513235395;0.882233029648982;0.868992793212189;0.857007383699683;0.846021506037935;0.835791734801636;0.826623732884947;0.818547739061338;0.812138181769905;0.807995710460428;0.805813514607465;0.805969062318437
0.555694393279925;0.515646482324847;0.481252656667393;0.446061537626674;0.416141554319777;0.393606380218003;0.379001836263141;0.371090126949055;0.36653528138901;0.364852961900049;0.36536113383996;0.366816959560976;0.368987695604168;0.370254411437275;0.371310642104261;0.372732997622835;0.374068349176403;0.375558348308131;0.376778526020428;0.37784029315295;0.379075120725535;0.379925708801101;0.380907713351632;0.38190763890138;0.383012771833159;0.384033964918292;0.385070634715826;0.38625159846828;0.387519195873887;0.388805812847998;0.390329835936951;0.391646755862461;0.393738297353152;0.395777728102853;0.39830898996166;0.401799637480213;0.40728986567069;0.414887522490409;0.424271933179213;0.434232910955833;0.444586299034298;0.454826038093533;0.464038996839602;0.472887823723161;0.481231480261346;0.488993328224658;0.494679323212615;0.498252713959314;0.499327253715142;0.4981620352743;0.495101849760422;0.491741580971051;0.488600645864079;0.486303075542596;0.484987389402532;0.484389858378402;0.484401914887834;0.484819329432064;0.485367920054404;0.486009351440014;0.486334215557362;0.486162174925641;0.486713797480063;0.487604473650655;0.489361706923595;0.492239224929177;0.496315521054786;0.50183630393401;0.508835604726767;0.517260439774215;0.526686782481019;0.536751020166278;0.546527543344659;0.555854297015884;0.565802480696208;0.575819187562383;0.584990239633736;0.597109733092704;0.614629167094845;0.638371685468005;0.670750233191116;0.712469452974889;0.761595312685369;0.815958794304903;0.870003825580957;0.919427983659076;0.960770743202454;0.992675203780262;1.01626999968305;1.03296805493257;1.04391781244506;1.04907311756698;1.04992931907397;1.04719719598484;1.04140052424437;1.03352739051448;1.02392788406694;1.01366336013494;1.00308578513112;0.99303534028521;0.984319672510747;0.977479253108688;0.971975212211333;0.96787745620585;0.964826511102321;0.962139026542973;0.959772786483786;0.956870456122532;0.952568581120964;0.946244892011721;0.938230586533828;0.92803666210595;0.916091583305151;0.903275904819452;0.889909510177825;0.876445936352435;0.864359536990235;0.853232781189245;0.842847979568324;0.833484930242927;0.825162475089073;0.818593211883752;0.814294130272882;0.811931116961132;0.811981254209919
0.554398909959653;0.515387438852208;0.481025294460975;0.44584362371102;0.416231574111419;0.394254847588963;0.379915813507657;0.371961099040591;0.367532078360135;0.365480108597598;0.365849934249408;0.367231827816745;0.369558903096;0.370796586792315;0.37178206235269;0.373139406971411;0.37444597561117;0.375964314963643;0.377237392014885;0.378368155834843;0.379660280556621;0.380666829669181;0.381566860054044;0.382455348682016;0.383701916154919;0.384659544964264;0.38568789432101;0.386984969487536;0.388195468469033;0.38945321534146;0.391100377173317;0.392429394771616;0.394480876819814;0.396453576703289;0.399000764444197;0.402563932664321;0.407905888598972;0.415452586989187;0.424682348144201;0.434445665273125;0.444693415908155;0.454828761010459;0.46381124378349;0.472434410402409;0.480742868379425;0.488399757657397;0.493935980041515;0.497484254744865;0.498544025932266;0.497447389773781;0.494431536346746;0.49126483090986;0.488068668833891;0.485833052770621;0.484601094458888;0.484058501655716;0.484053471008134;0.484448951723492;0.485009280452405;0.485660014635334;0.485997649160055;0.485885961446187;0.486441226472964;0.487285193563196;0.489047292912314;0.491852089296404;0.495910450934976;0.501360609898778;0.508163783563454;0.516477317164362;0.525665122690563;0.53551566890033;0.545061586275024;0.554134053638684;0.563915946690855;0.573677624609112;0.58261284882651;0.594448239618532;0.611559172239189;0.634703371467197;0.666236239163925;0.706809650112786;0.754651210564843;0.80761014753297;0.8601665483875;0.908145298979657;0.948244131008667;0.979205881842177;1.0020324694368;1.01812193614296;1.02873783917761;1.03380615504981;1.03471685875048;1.03204712066832;1.02660218231962;1.01890612323567;1.00962526633239;0.999807216044907;0.989418097956123;0.979735698512582;0.971251487238133;0.964545845945665;0.959178985577985;0.955208672538863;0.952023039227704;0.949302856830095;0.946961913188579;0.944145200143348;0.939881479288114;0.933825451711768;0.926032139449585;0.9161613977699;0.904654873366224;0.892287489640155;0.879432649063424;0.86642468905918;0.854686098460961;0.843945996364151;0.833879657157102;0.824886424123515;0.816906757844385;0.810566959678991;0.806472752386827;0.80428627648784;0.80439892392603
0.553618498542951;0.514726581997272;0.480718169759925;0.445819134936076;0.416325803489669;0.394451472364915;0.379890607568259;0.371847185947779;0.367533191909902;0.365450387039347;0.365876960297953;0.367354857874429;0.369591043132596;0.370898084147725;0.372023283244865;0.373245145984347;0.374463975811381;0.376052470699324;0.377099629559186;0.378147140932171;0.379470758494486;0.380312113975824;0.381399706330459;0.382458596584473;0.383707379923582;0.384832277467837;0.385945626618282;0.387257773990497;0.388482420030502;0.38986258210405;0.391417276508296;0.392911118013612;0.394985155198789;0.396854652655142;0.39937685761026;0.40274239970229;0.407859564914712;0.415154373576132;0.424173426685471;0.433964106457107;0.444073930237717;0.453791081851569;0.462459572192452;0.470741523703708;0.478689410072678;0.486234016553818;0.492014533667528;0.49589031617716;0.497205114599169;0.496284065591614;0.493531363268311;0.490514001455527;0.48748062968858;0.485302992562564;0.484206402255184;0.4836796451765;0.483863408179975;0.484232227130731;0.484685538120985;0.485303125328717;0.485613377901878;0.485522643281866;0.486119341684211;0.486962549603573;0.488743009071747;0.491625981624497;0.495662776680146;0.501093148932413;0.507911681253952;0.516178432621277;0.525200307953969;0.534784651940997;0.543968927946011;0.55270379193317;0.562185407239116;0.57181691770226;0.580534471702743;0.59215039652086;0.60894962596016;0.63187663403606;0.6631561754913;0.703450417645539;0.750708921460375;0.802991409146137;0.85470630043773;0.901437949988343;0.940154212115376;0.969639954906525;0.990883240008534;1.00540695777692;1.0147035193338;1.01822971587345;1.01803505254853;1.01362804537719;1.00649243642982;0.997820974422596;0.988078710406134;0.978037105311406;0.968185710577284;0.959356921968198;0.951877236477868;0.946215345572115;0.941933252239838;0.939028074158306;0.936915953334838;0.934989759755483;0.93327202581899;0.930913818261335;0.927103371390613;0.921302175516625;0.914156289577272;0.904814602642852;0.893499051678608;0.881506114215846;0.868929521192995;0.85612683286852;0.84467854049648;0.834165043338775;0.824343542537907;0.815317368702226;0.80694277819515;0.800450503300644;0.796303932722844;0.793515489472234;0.793012844539198
0.552837005320635;0.513982757949124;0.480250737435526;0.445452816799365;0.415521886795732;0.393846806919673;0.379222558708134;0.371363643683709;0.366717927041199;0.364836864742034;0.365249139974577;0.366631544662066;0.36888491737533;0.370085343102991;0.371080839184732;0.372422988327447;0.373707376841227;0.37525105650155;0.37639566392651;0.377409268208272;0.378705602033598;0.379606985380103;0.380666725329119;0.381765981332613;0.382962210462291;0.384051525687197;0.385272529299331;0.386505858510224;0.3878313703494;0.389200203879263;0.390785097299168;0.392155466041626;0.394236761719262;0.396166501777544;0.398645332479555;0.401938012114096;0.406995207563994;0.414239428820396;0.423129984889024;0.432769245760197;0.442690982645335;0.452360771328434;0.46095339908852;0.469225722279911;0.477091853978441;0.484592081034669;0.490304839670159;0.494158551327791;0.49543956925774;0.494532153044651;0.491804109057263;0.488787306392822;0.485805936249397;0.483592619714682;0.482545318534228;0.482058785081491;0.482221429654182;0.482577113808083;0.48306620986606;0.483639701234052;0.483970473735014;0.48392044476404;0.484506330310388;0.485362874216382;0.487114375724376;0.489892855972421;0.493856759729848;0.499251842394177;0.505998688869945;0.514061338690839;0.523022954988466;0.532527308864841;0.541580032626076;0.550208836299616;0.559629871783279;0.56915834633442;0.577756946316586;0.589323129759068;0.606027182603692;0.628818127292241;0.659926284070496;0.700050351594106;0.747342081424861;0.799702567487835;0.851588933521898;0.898784781304827;0.937911248188133;0.967896816532701;0.98944140980691;1.00445018117368;1.01372736424754;1.01742735358772;1.01756516828424;1.0133248062469;1.00600769962326;0.997115893632711;0.987544953889876;0.977334955392377;0.967384059252475;0.958359048335648;0.950857985515062;0.945154924138141;0.940744521598285;0.937711780896149;0.935552119469184;0.933674074637962;0.931897664455058;0.929468242652735;0.925656861831178;0.91987699484617;0.912570702126027;0.90295311894052;0.891582810373222;0.879474765147877;0.86675753489782;0.853868862229399;0.842251986551923;0.831561742490001;0.821697163478052;0.812569813618067;0.804212116730272;0.797627764606021;0.793427221445338;0.790637819664152;0.790118938366482
0.551808802167743;0.513244736503536;0.479142466944119;0.44444379959229;0.415004722537454;0.393147294247458;0.378561869812974;0.370602736666912;0.366233397573528;0.364185129374737;0.364660941580583;0.365961780573084;0.368208427353952;0.369492189600471;0.370464208770649;0.371782369034333;0.373101978863879;0.374681683015035;0.375814367451466;0.376777388511134;0.378026719590963;0.378943217595653;0.380034571912076;0.381031546988822;0.382247638151589;0.383366446382878;0.38454014692074;0.385848576309111;0.387193899498405;0.38854127808798;0.390034518265239;0.391472040983558;0.393528667851908;0.395473501796704;0.397942831595345;0.401278307562274;0.40627642447315;0.413561911239856;0.422404119831003;0.43200749193116;0.441935910957167;0.451649160233195;0.460257657508656;0.468457093102931;0.476369794038058;0.483852557520194;0.489510888698982;0.493453298970966;0.494743768247967;0.493817493479094;0.491109259714618;0.488015226397381;0.485062221552036;0.482850702103876;0.481841800837695;0.481316586740618;0.481469346686384;0.481843908238533;0.482323080487538;0.482908266013718;0.483203202675472;0.483098703768718;0.483733747300478;0.484576042904146;0.486296155842526;0.489121086750479;0.49310955010767;0.498464644918728;0.505271180763088;0.513398104302912;0.522370773162089;0.531877260851981;0.541022552205393;0.54966635109024;0.559101775432549;0.568641383065375;0.577360430861226;0.588942378814623;0.605756059680025;0.628746447238268;0.660280114515212;0.700862215777563;0.748868386859478;0.80202732842997;0.854807013540871;0.902785392822585;0.942658026558942;0.973368693227381;0.995560393815074;1.01076333261035;1.02022793476066;1.02401398107848;1.02402210518522;1.01955314693942;1.0120158156514;1.00299232467687;0.992919534291326;0.982535920624119;0.97236788687457;0.962996048974053;0.955259601146178;0.949493029171515;0.945033602620188;0.942041929313094;0.939896983775054;0.937863066563695;0.936055230656761;0.933562998924631;0.929577537304633;0.923710628517544;0.916293538938784;0.906497417513597;0.894850003193182;0.882526522685198;0.869554294465369;0.856388533004617;0.844621446275234;0.833785458656859;0.823768631194649;0.814518758297566;0.805983508861634;0.799264380881244;0.79495730816396;0.792076558179659;0.79151027186999
0.527734712684998;0.493047915038718;0.46258794772366;0.430275635603863;0.403000131890075;0.382659280249656;0.369253691318968;0.361883197910736;0.357664105370008;0.35607449612142;0.356507745297465;0.357833553546026;0.360079632270775;0.361371591430586;0.362481752085758;0.363950531013184;0.365293349929928;0.36684778551477;0.36815388325874;0.369346391202835;0.370795056862908;0.371921931653471;0.373057889614914;0.374284727098112;0.375678602807845;0.376890637006859;0.378139257032252;0.379502079610333;0.380906878168732;0.382397623887434;0.38396341353713;0.3853950823831;0.387459522297787;0.389385929922369;0.391887277634543;0.395112961338748;0.39994640807137;0.406570705894369;0.414751957653161;0.423547037783793;0.432597761076833;0.441440578843257;0.449269257067403;0.45676995930226;0.46397654876789;0.470873527052715;0.476013697233104;0.479626659716876;0.481017801029939;0.480530742508167;0.478336371812263;0.475796334411253;0.473262285144215;0.471494403631217;0.470649735687852;0.470312276656917;0.470557710399021;0.471074434037911;0.471578909396037;0.472228235587727;0.472632043505358;0.472667763713746;0.473338481939488;0.474175459683696;0.475833225156695;0.478436986576688;0.482073280909564;0.486895650988321;0.492904674327309;0.500216860966289;0.50820436864147;0.51665680375566;0.524736571706696;0.53232190983748;0.540662556522605;0.549010450527545;0.55640582302828;0.56616954503601;0.580352660533669;0.599430411006122;0.62541697389989;0.658867311076187;0.697706743557567;0.740137457646218;0.781216697297604;0.817601897867622;0.847157519224075;0.869431132730607;0.88514558556194;0.896026356103564;0.902882964733158;0.905710942845087;0.905939601332717;0.903181719673834;0.898456721194262;0.892578702509209;0.885857252084962;0.878775443682873;0.871789806862948;0.865310459521715;0.85991797555644;0.856036412987475;0.85307080999168;0.851030447353007;0.849657795264847;0.848495315659334;0.84735091288462;0.845763541362906;0.843175035102506;0.838947799717939;0.833665222334535;0.826657238889058;0.818204701428891;0.809210432645435;0.799584834960564;0.789691113429928;0.780909509259268;0.772793022492455;0.765194042050641;0.758229208460324;0.751806943017915;0.746658601761507;0.743345984079071;0.741086044441766;0.740769140404245
0.541541041609864;0.504078836171489;0.471326598467318;0.437513114697562;0.408456930483393;0.386873080247966;0.372799698515707;0.365041242336998;0.360790312242622;0.358978962023265;0.359534563647346;0.360861384431169;0.363250903428118;0.364609757201083;0.36566079898604;0.367075257724276;0.368305873540582;0.369843465783848;0.371067775412849;0.372087726929759;0.373430841269264;0.374332128770504;0.375417200047177;0.376464996474544;0.377678194165827;0.378764396403632;0.379906960015156;0.381244945271291;0.38256778214764;0.383860078030302;0.385495618605192;0.38689753040183;0.388843874898545;0.390818526843801;0.393345674156668;0.396714315136016;0.401812015996189;0.409089204997342;0.417978817998624;0.427615219714393;0.437579245726911;0.447325579725238;0.455991520120328;0.464226647903597;0.472217414113681;0.479746055515415;0.485491694226282;0.489400170277109;0.490761444822824;0.490028395606589;0.487274123704881;0.484176871074492;0.481113910801122;0.478932560300369;0.477794889905706;0.477231927053906;0.477420282533788;0.477774272881558;0.478285158703035;0.478814565081495;0.479122178519198;0.478988429529735;0.479544373050051;0.480393802329441;0.482107809285189;0.484859779914457;0.488763618139438;0.494132806879379;0.500816496059913;0.508917885650197;0.517831144935495;0.527384829036546;0.536531812450371;0.545165349841426;0.554538094285541;0.563873466126385;0.572318859229332;0.583455181105601;0.599549223624111;0.621280767354938;0.650937438340941;0.689016051848471;0.733518056175733;0.782365263338461;0.830300884141563;0.873089381154416;0.908475134448726;0.93505183425061;0.954253106353966;0.967536775040035;0.975961171165045;0.979655293793902;0.979875406025881;0.976673449049972;0.970847230995163;0.963592299876126;0.955184777327785;0.946596917848917;0.938080302567212;0.930298241021753;0.923705163601852;0.91877622801236;0.915114642998997;0.912663749222909;0.910905975428774;0.909360034681475;0.907966771918451;0.905981919849917;0.902669793274425;0.89770490646071;0.891188810545228;0.882762520956315;0.872660292416935;0.861875794059015;0.850410816715977;0.83873114802951;0.828270329362521;0.818654993912468;0.80960190187873;0.801336316217474;0.793752579264524;0.787699440433545;0.783662525886612;0.780872010999893;0.780345541764639
0.551721075363647;0.512615971042315;0.477880108622647;0.44277764911836;0.412775223069008;0.390536645835132;0.37587813783642;0.367763960771532;0.363334510510504;0.361645644878916;0.362221870646713;0.36370572378691;0.366121077672514;0.367400092323927;0.368416832655846;0.369786986065796;0.371021749160392;0.372476740185188;0.373600806647447;0.374578577436837;0.375776708110695;0.37665124687547;0.377709075368813;0.378736244749208;0.379907480803836;0.380908548536139;0.381993974333243;0.383304506297605;0.38457836335747;0.38581953935469;0.387317101999764;0.388761375903681;0.390882188939125;0.392749947802647;0.395331883020596;0.398797935670262;0.404062653270115;0.411542286843932;0.420847388554436;0.430889556426342;0.44137493720745;0.451579746210751;0.46064822427726;0.469342804154499;0.477708252794822;0.485605406311877;0.491644707169039;0.495720976274339;0.497087097068556;0.496104635999754;0.49319593502288;0.489780698719153;0.486446817320172;0.484036393718117;0.482694552214552;0.482098979248496;0.482081583283555;0.482422249232223;0.482852814406081;0.483375528857303;0.483619069378198;0.483442812773933;0.483930503036078;0.4847827283081;0.486515510746122;0.489385829882932;0.493511338505644;0.499094069428732;0.506171806255474;0.514793787624146;0.524305572458853;0.534419084048512;0.544286505982008;0.55365952152699;0.563689749737562;0.573731490874017;0.582836158778935;0.594952950149992;0.61246798329689;0.636248917747906;0.668766711428157;0.710675762382602;0.760239187299402;0.814795383148146;0.869046437118746;0.918134081280755;0.958903920790976;0.990085311257702;1.01266838689636;1.02817175163667;1.03807645929879;1.04220816503066;1.04230682018828;1.03820353400094;1.03104738019376;1.02219923429389;1.01220569962935;1.00185814627442;0.99161362186212;0.982205642154321;0.974369764173989;0.968470354196577;0.964035028617916;0.961010864390927;0.958830046572239;0.956834279792546;0.955052006580462;0.952671384696563;0.948788803506288;0.942788964723204;0.935140474059434;0.925254119661443;0.91357894523858;0.901031799231371;0.88783085199834;0.874534024336835;0.862584800480478;0.851533083429706;0.841298046450083;0.831912254701316;0.823308092933978;0.816417861383814;0.811839589160936;0.808552339173396;0.807820741877144
0.527851110371966;0.491230912715553;0.457364260531597;0.424648978788801;0.395485269458951;0.373755947848961;0.359397335267009;0.350620740355009;0.346296817724853;0.344539902873831;0.344739557108858;0.346280526276803;0.347847492216765;0.349488396703174;0.350819995849051;0.351808664661747;0.353254266775135;0.354519271866828;0.355542502884678;0.356867635083932;0.357859095277904;0.358911372934668;0.360032069400123;0.361148283407862;0.362303379455177;0.363376119553088;0.364332923104134;0.365469428752707;0.366793108848969;0.36827504532735;0.369750354500043;0.371464456445627;0.373267302133824;0.375042333436759;0.377374059110873;0.38075688448935;0.38592218048717;0.392874200247601;0.401467411645141;0.410829925180104;0.420307614801924;0.429678817052851;0.438181906299472;0.446102658857714;0.453663428534716;0.460783594038644;0.466549270655728;0.470129926976581;0.47135115440683;0.470743706312235;0.468230713681636;0.465157375653509;0.462214516843803;0.460325589636925;0.459219568754105;0.458777198477843;0.458841026931595;0.459330606941517;0.459908388467437;0.46037635766652;0.46073466033975;0.460782966648639;0.461188951912649;0.462228994688292;0.463791153658704;0.466559570336174;0.470386161611949;0.475494701288553;0.482008844069836;0.489975516697245;0.498565789813308;0.507625340762016;0.516247146448512;0.524534678280543;0.533631141137568;0.54302622816917;0.551329074219133;0.562309037884132;0.578448059975005;0.600334583831496;0.63024179886183;0.668651673291622;0.714078531396265;0.763864470317435;0.813004133676104;0.857138948457783;0.893490895428654;0.921069993584874;0.940827509434471;0.954554184111719;0.963209471791745;0.966647828576879;0.966820000365796;0.963227428026514;0.956936525023598;0.949346913741493;0.940367297398813;0.931286253182378;0.92234835145167;0.914116017975061;0.907119418465833;0.901806374136712;0.89783017577939;0.895095183615809;0.893229976275286;0.891679251039279;0.890020413656817;0.887899287199454;0.884430423757764;0.879335271258255;0.872422920199484;0.863591793369633;0.853265616367267;0.842127571964102;0.830307935941181;0.818357319716587;0.807752671078868;0.797985196639056;0.788683189172108;0.78037199412637;0.772861233947386;0.766713695008389;0.762261024028291;0.75896356696097;0.758293676656314
0.522927678548591;0.487143974003438;0.454204669556761;0.421910250702812;0.393287880075471;0.371856796849943;0.357514903194715;0.349189200735735;0.344881166532348;0.343160965859204;0.343397331608233;0.344921044545604;0.346501910877714;0.348199983172707;0.349600381226665;0.350556386534654;0.352030248590918;0.353458850631313;0.354531945456156;0.355868775232622;0.356857560036936;0.357980686596342;0.359179806352635;0.360349983829551;0.361532308548164;0.362552801407484;0.363507991408885;0.364604528488162;0.366035217448303;0.367599200142223;0.369061341209422;0.370820658391135;0.372574022365815;0.374408229042564;0.37669156685705;0.379980709909663;0.385113852292518;0.391940923485348;0.400361532961391;0.409501123615461;0.418823297682568;0.428042073369518;0.436419963693856;0.444188891803276;0.451638470979625;0.458645574107451;0.464325311034409;0.467882246021148;0.469024389684832;0.468411756696912;0.46600856269413;0.463162638058676;0.460368585385903;0.458512242083891;0.45750172370798;0.457174075282387;0.457256586533047;0.45776207665088;0.458402411242929;0.458880502842367;0.45924857599145;0.459287213639786;0.459713956828934;0.460788487711793;0.462351509162934;0.46506549295292;0.468788000603843;0.473773705572322;0.480184733469604;0.487898477551888;0.496203871278128;0.505028115015564;0.513314687027435;0.521294292775255;0.530040945250834;0.53916091870731;0.547124897013584;0.557529167773158;0.5729342693352;0.593725927735628;0.622128841417814;0.658532039001769;0.701238156837455;0.748057028805675;0.794008716837696;0.834893435051645;0.868708623176092;0.894180979892881;0.912480160159674;0.92527422961999;0.933254893916146;0.936574686956559;0.936870886300816;0.933746773790182;0.92825971359073;0.921562758266063;0.91357680967041;0.905351416389478;0.897301544589583;0.889807733124031;0.883525420222785;0.878925273935101;0.875439372713268;0.872981745053549;0.871350050282874;0.870002215835024;0.868526659371673;0.866736125426448;0.863647629677135;0.858992271652653;0.85266413531196;0.844475404262103;0.834908579571003;0.824594018947017;0.813523686757443;0.802281232408802;0.792288634959777;0.783118958968773;0.774263871865372;0.766350907239056;0.759247629278388;0.7533842444383;0.749099367999737;0.745871435919543;0.745166112466002
0.529037215475741;0.492149388424469;0.458019094657855;0.424878343822788;0.395347208434103;0.373735717826253;0.359386406557877;0.350719188022328;0.346391975846302;0.344736867553083;0.344943819897166;0.346613513752399;0.348234066658105;0.34991220578262;0.351263730972365;0.352223799763809;0.353712950946115;0.355126742766684;0.356215116622547;0.357494129768944;0.358457577768673;0.359484874215119;0.360578460542507;0.361717156847583;0.36293726972491;0.363977639929746;0.364929029042487;0.366101603771372;0.367452112705392;0.368973678958817;0.370502021788181;0.372195870597865;0.374001966923596;0.375737917245275;0.378165502674957;0.381533298703964;0.386745136308468;0.393665506823151;0.402351645827652;0.411848231032601;0.42145464903386;0.430844463123065;0.439459863014089;0.447433982848604;0.455153033941522;0.462372792178689;0.468172637589807;0.471778727383996;0.472936081561688;0.472235965377137;0.469724467022037;0.466719946253578;0.463716487190017;0.461820401349704;0.460764145369909;0.460331104888598;0.460380870667483;0.460918880490789;0.461488977012935;0.461993003070824;0.462328338308012;0.462357805804516;0.462725183946072;0.463833103905834;0.465406380423629;0.468191910332912;0.472023059978878;0.477170680244069;0.483734144162473;0.491779986164298;0.500434426885301;0.509579924006001;0.518243302413172;0.526561790439671;0.53573824117758;0.545210763723926;0.553543299801603;0.564532939958092;0.580715035924485;0.60272653658305;0.632814102194214;0.67144487919329;0.717034574530437;0.767214230496252;0.816813605831256;0.861499624395662;0.898546448866849;0.926567608499509;0.946750562710543;0.960915990734423;0.969899213919472;0.973472046730502;0.973823959847008;0.970253514689481;0.963895528358611;0.956302992275662;0.947254515110227;0.938089717328868;0.929012529424769;0.920737331370147;0.913633405775332;0.908366099274754;0.904394828680288;0.901703156160531;0.899838035249233;0.898238152046448;0.896608883756809;0.894427145097354;0.890934338045731;0.885764432430221;0.878702518711646;0.869701619904548;0.859195405561976;0.847771298743217;0.835577543691096;0.82336158518556;0.812402297419471;0.802263603042444;0.792634962530928;0.784053280320945;0.776307334193496;0.769965644454683;0.765307363736544;0.76174709140531;0.760852738349657
0.519906350608589;0.485158965193887;0.452992076429888;0.421606654247741;0.393379193950537;0.372752156431261;0.358736146845766;0.350486786102056;0.346470181156582;0.344792102843386;0.345063674443;0.34653740461967;0.34803521949938;0.349756314104228;0.351206886508532;0.352175916885407;0.353611175333087;0.355077653442318;0.356208015477661;0.357513716115045;0.358597187067742;0.359809250008264;0.360943635352066;0.362111483105377;0.363280575082492;0.364302777539949;0.365254980667386;0.366350895292813;0.367755554137121;0.369183671301617;0.370689402777367;0.372345699697945;0.374101235784428;0.375903111962629;0.378225469027717;0.381545112839816;0.386702708303986;0.393462359995422;0.401865915948354;0.410978591827818;0.420199946219904;0.429350717689066;0.437712370905822;0.445424353138358;0.452807368447974;0.459841398003399;0.465367194545986;0.468823022558837;0.469927149681828;0.469382222422776;0.466936630452663;0.464053029929373;0.461273360132207;0.459489836222537;0.458333032436475;0.457965983416869;0.457987551283124;0.458561799863366;0.459157809797644;0.459703693057109;0.460047160466437;0.460105412829887;0.460498977531123;0.461513611395227;0.463061085223576;0.465736874481827;0.469390285691148;0.474274856091279;0.480555955761594;0.488149913934594;0.49638770020938;0.505124685745793;0.513401928568908;0.521344923137597;0.530075532053186;0.538964377011269;0.546769292292977;0.556937225401959;0.571808330082537;0.591816700242959;0.619057768576241;0.653770680139122;0.694437554537881;0.738545132204215;0.781562970536565;0.819726420987469;0.850974052736104;0.874355782450306;0.891283473157221;0.903227940827625;0.910957625267189;0.914380524555608;0.915012855857135;0.91289503274147;0.908496241193055;0.903054202600931;0.895974059203139;0.888881714879224;0.88152793373978;0.87474586300592;0.8689311269678;0.864471732286605;0.861084352851612;0.858794880115572;0.857226159417913;0.855850643622712;0.854463938716623;0.852903018278119;0.850017692854458;0.845666121139771;0.839881566669721;0.832441359110814;0.82369801448792;0.814102452714801;0.803962335798186;0.793689378672385;0.784433018457577;0.775885117966169;0.767558921989681;0.760400998538049;0.754075687852119;0.748613183508358;0.744381403622237;0.741404855940244;0.741004464396102
0.530606306474919;0.494180909586955;0.460585133050118;0.427583716630463;0.398629998986894;0.376844920361044;0.36265158928586;0.353964845177971;0.3496308833162;0.347802701253864;0.348059320269939;0.349435085510752;0.351023241017282;0.3526090092055;0.353939138994988;0.354913308539244;0.356294617920625;0.357660246047307;0.358773845244516;0.360032367895621;0.36089996565069;0.362029610472036;0.363102475352406;0.364181713934819;0.365232323246025;0.366249243779051;0.367100742032665;0.368159154879675;0.369495036918355;0.370947668364387;0.372368628929171;0.373904775304299;0.375709857927803;0.377539981059866;0.379858321105337;0.383226096521467;0.388481463918516;0.395418122493344;0.40412938816116;0.413537375992064;0.42317716095702;0.432765598947758;0.441504910071768;0.449551619374524;0.457389284555211;0.464706639656696;0.470430549937819;0.474005968809985;0.475094189437986;0.474375828857793;0.471700616298416;0.468517889627706;0.465453560345933;0.463475519574865;0.4621835484664;0.461733371688765;0.461712748718314;0.462186695558422;0.462720142362557;0.463213486473607;0.463544967175171;0.463485999137628;0.463816171691884;0.464861012833286;0.466453914844201;0.469147685228853;0.472961502953812;0.478079974907558;0.484598575983289;0.492599026926522;0.501345318040865;0.510656996184071;0.519432431377681;0.527851256803798;0.537179594133145;0.546626153325254;0.555059419798101;0.565946167976779;0.581970973982718;0.603592625097746;0.633113295839893;0.671058623955618;0.715644851252784;0.764582160771046;0.81283955456681;0.856140865227102;0.891986989165816;0.918971868251654;0.938693441226746;0.95252925740014;0.961477992542124;0.965357508230402;0.965948579797616;0.963189122289796;0.957901173662214;0.951264622505168;0.942912707115159;0.934441197633149;0.925861851366455;0.917780657973351;0.910852563221258;0.905637545922693;0.901646362100237;0.898865974885;0.896829373962626;0.895090067172155;0.893454194199323;0.891506349838661;0.888071093647744;0.883063339441432;0.87632145824325;0.867712767592029;0.857589883481778;0.846668156766325;0.835101050050574;0.823422314105225;0.812861005598458;0.80309378577328;0.793668313852006;0.785533675526222;0.778422247814344;0.772444924859633;0.767937228087064;0.764861330501654;0.764555390118838
0.528134987972332;0.491619919570846;0.458056500838222;0.424869679799988;0.395981420695615;0.374398972891759;0.36007216913272;0.351393438307064;0.347148486680587;0.345532453152216;0.345795629500293;0.347277646902868;0.348991273886033;0.350663875408926;0.352037965537778;0.352971457040411;0.354309670942476;0.355704918834132;0.356824077001081;0.358172450220623;0.359126980156854;0.360179451631761;0.361246852061087;0.36238090202377;0.363477100721402;0.364581000059013;0.365433965491428;0.366496499279723;0.367837297833336;0.369278693944185;0.370709185466902;0.372397804031482;0.374115932792511;0.375968650073268;0.378318858728466;0.381635663702204;0.386876255514849;0.393880688106315;0.402520698920112;0.411938150115621;0.421620069027122;0.43125656745393;0.439950906673882;0.447991755790695;0.45579362386931;0.463122644853166;0.468901896207962;0.472517423399699;0.473572192431719;0.472856858950612;0.470134286061553;0.466977994686509;0.463866212082239;0.46186102954664;0.460592658361198;0.460100652128511;0.460141245046368;0.460565317021387;0.461117368511917;0.461607511369581;0.461870338089759;0.461878137293011;0.46222660266331;0.463230395205988;0.464786922057141;0.467467154950074;0.47127633383216;0.476364851668332;0.482908398049805;0.490889993591546;0.499564679203639;0.508772537912173;0.517563359223578;0.526038703722404;0.535269824117592;0.544708731911667;0.553089276703271;0.563973389567564;0.57994700025153;0.601505317341321;0.63093728623218;0.668659166045291;0.713045298185813;0.761752862552146;0.809673625472115;0.852528970918579;0.887913378138438;0.91468908142008;0.934006726191087;0.947628147793865;0.95623741234029;0.960088016650067;0.960665211261914;0.957810129533941;0.952459962874953;0.945815706868809;0.937624495731841;0.929105478239286;0.9205560852401;0.912572832752551;0.905752539941226;0.900536905835589;0.896533586660845;0.893732929335821;0.891739156550833;0.890037607917158;0.88835714105494;0.886281871068271;0.882885211163538;0.877917872244247;0.871129854684273;0.862562962760961;0.852586804995126;0.841760273764587;0.830267683457;0.818644982338883;0.808072473311469;0.798284509779387;0.788950778636252;0.780841070818221;0.773811903201296;0.767857825174802;0.763243127695776;0.760133429845622;0.759784338092141
0.550141007847017;0.51259942942866;0.477325247309574;0.44233390666243;0.413378943182697;0.391452038314141;0.376403722879221;0.368680144354845;0.363937278380923;0.362443930568047;0.362570415431636;0.363771453872789;0.365994865979833;0.367348078172787;0.368499614041707;0.370049500924631;0.371246313617074;0.372526197770727;0.37379548640073;0.374680242249505;0.375969888683966;0.377089281026718;0.37798575697866;0.379041751373037;0.380173789770391;0.381159803183862;0.382206903764749;0.383432175523641;0.384795724067178;0.386229192662465;0.387745351520468;0.389343881828543;0.39133268324593;0.39308480240289;0.395570351585982;0.398987486272891;0.404284702111805;0.411335420396506;0.419969839837123;0.429992202326854;0.439866596074077;0.449406626012214;0.458318559118742;0.466468407578288;0.474446135300174;0.48190094365713;0.48773489496053;0.49136875551996;0.49263629277837;0.491745488712704;0.489188463036981;0.485923453404625;0.482928864128537;0.480662603001181;0.479489218264225;0.478885201383364;0.478883762381097;0.479299701645656;0.479861157399449;0.480366498233803;0.480604941943596;0.480676132786447;0.481101813736492;0.481920440160026;0.483694195207434;0.486424853691587;0.490372802843527;0.495610702813719;0.502427546461823;0.510572696493727;0.519672200337016;0.529245326663775;0.538521882835988;0.547361618158741;0.556867711806916;0.566366314339669;0.575054856526196;0.586543985089168;0.603124099358373;0.625468305521251;0.656262215626894;0.695662234600077;0.742332702537263;0.793601345313484;0.844102476151351;0.889715749884874;0.927314922807071;0.955643324694611;0.976004318736352;0.990163849399091;0.998922550146346;1.00245709681576;1.00268151765361;0.999034768200376;0.992413512568969;0.984301241572467;0.9751335679999;0.965554442716993;0.956151819897678;0.947276824000858;0.939889798700092;0.934306778590352;0.929987267757646;0.926884215861788;0.924800247996001;0.922969849093192;0.921111277397472;0.918718597602738;0.915122501243986;0.909725718658516;0.902660768778768;0.893428709059172;0.882768157314338;0.871287079732766;0.859237488451937;0.847061618137644;0.835997695861027;0.825890744278375;0.816332211684486;0.80755521454551;0.799703936658443;0.793485254978137;0.78955706981637;0.787175276229011;0.786933240234993
0.554983035935057;0.516511411055982;0.480890695328395;0.445636482541937;0.415910079670096;0.393498253104978;0.378245182958992;0.370389815409145;0.365680555533854;0.364131690863134;0.364339856879889;0.365718962415385;0.367946313367492;0.369192816961889;0.370401432162977;0.372071359373699;0.373201555008477;0.37437624473617;0.37559856694767;0.37648297721393;0.377695188918588;0.378777070437851;0.379747628005588;0.380723385671707;0.381793179349528;0.382746603974816;0.383739323331425;0.384840283810697;0.386229615402819;0.387638779686975;0.389077423510798;0.390688134136029;0.392690409359714;0.394473660157526;0.396948236201191;0.400487436547948;0.405829073704281;0.413149048358661;0.422048527956574;0.432296004284935;0.442479204047695;0.452322868043754;0.461531333932426;0.469924074143349;0.478122022504598;0.485851131392096;0.491822572735336;0.495535526235091;0.49678530910146;0.495755382973644;0.493052510334187;0.489664279006228;0.486494741820268;0.484077168515231;0.48280885423449;0.482131796261266;0.482225120837529;0.482567482628748;0.483076116286084;0.483540783046489;0.483804526758022;0.483889874340857;0.484193689034378;0.48502851895265;0.486847815469034;0.489676348724543;0.493709326550141;0.499098592095417;0.506211787656156;0.51460683115103;0.524037830200368;0.533894322888705;0.543590235922133;0.552782257271583;0.56258495621193;0.572468938233942;0.581481450029643;0.593378247989162;0.610580857735727;0.633720150036922;0.665597120580236;0.706427752681841;0.754761320228046;0.808152041858615;0.861027583650277;0.908640849977908;0.948276128986528;0.978501014641287;1.00015841608648;1.01553416730435;1.02513447610685;1.02926229515044;1.02953503404647;1.02607543903059;1.01924079554818;1.01081275176726;1.00115236444809;0.991042321147473;0.981309485229708;0.972120998084067;0.964340566777712;0.958522833041895;0.954074904115057;0.950857597684434;0.948717787633421;0.946845465565578;0.944970850213674;0.942616165125835;0.938860536830506;0.933112650738851;0.925707368126338;0.915984556251892;0.904719385761765;0.892619060557352;0.879896150778426;0.867073047525535;0.855624461393752;0.845205497762151;0.83509213749687;0.825862532355766;0.817650696395265;0.811126895830047;0.807005988014802;0.804400307982888;0.804110029422804
0.555775899351207;0.517243720313967;0.482421589790783;0.446985338080383;0.417496767267578;0.39532832155828;0.380191195140993;0.372344676099778;0.367677370103383;0.366060640798582;0.366160633569189;0.367343727076746;0.369430366729625;0.370904919495499;0.372119952358539;0.373660248645936;0.374905883199202;0.376159850800849;0.377450280049859;0.378433963219054;0.379687971648076;0.380715872272984;0.381803745192387;0.382872326460253;0.383908221117776;0.384950912866945;0.386014282479933;0.387213177376857;0.388613427274327;0.390118645748304;0.39151525845224;0.393135160247698;0.395258609116601;0.396972610226209;0.399508796030447;0.402989367110623;0.408184268010459;0.415347358347642;0.424028245320454;0.434057897732431;0.443976260970893;0.453625534821123;0.462647424030794;0.470913983581794;0.478951793158263;0.486598196894921;0.492494537570356;0.496198697959919;0.497439880626266;0.496478009138737;0.493827648203597;0.490558614175528;0.487487835158401;0.485106012300478;0.483916077428978;0.483315259779265;0.483374471432974;0.483791825295814;0.484355148099305;0.484837763774816;0.48509765190748;0.485204623999675;0.485554125914509;0.48639956361638;0.488165817303684;0.491010643520778;0.494902275878428;0.500251350882444;0.507181801986245;0.515385304520374;0.524608070000062;0.534297791839234;0.543788275118106;0.552755738743204;0.562426678170569;0.572147264857892;0.581012171217097;0.592677092160361;0.609513188986328;0.632306653305591;0.663664768404832;0.703829924357955;0.751511529349277;0.804045303562019;0.856033918912733;0.903063930104728;0.942228187532311;0.971980098096016;0.993305959521564;1.00844779414007;1.0178975412523;1.02209348097095;1.02252131441659;1.01904350054063;1.01249957607783;1.00426041180209;0.995059445687795;0.98518639037347;0.975648992674658;0.966554530331805;0.9590248329882;0.95339169191451;0.948945542666522;0.945834874992647;0.943750513261715;0.941942750899377;0.940156104064588;0.937886780288964;0.934345979847029;0.928648671321198;0.921382254545799;0.911810026674059;0.900723806966594;0.888828590171892;0.876366867382964;0.863805342564868;0.852468361649228;0.8421366300757;0.832218779324244;0.823145632545618;0.815015732046229;0.808591746363282;0.804565042250545;0.802076885876758;0.801839336873231
0.51754062220973;0.483354645203494;0.451577657819166;0.420287496351153;0.392528892102383;0.371895038078028;0.357906717789255;0.349396441415252;0.345332434157389;0.34341945260454;0.343635742306333;0.345182888996578;0.346788837365146;0.348394159264553;0.34978799329396;0.35074110077686;0.352156765212152;0.353606959709416;0.354669905188332;0.356043045171657;0.357074323894907;0.358168091015971;0.359421478753853;0.360652686559562;0.361842131306052;0.362915734506869;0.363984065995103;0.365107879555551;0.366581339642352;0.368027991632684;0.369537647226624;0.371202820705952;0.372988586262268;0.374747037048508;0.377001845771327;0.380271664963067;0.385144212576632;0.391682392204505;0.399752404528038;0.40854859775102;0.417423063629929;0.426156851472929;0.434182984282898;0.441395216653738;0.448491449415046;0.455215093131162;0.460669173093205;0.464210206227411;0.465457745909136;0.46513874407264;0.462894615181214;0.46029149690854;0.457682210181974;0.455974766787238;0.455060766711326;0.454727034528451;0.454859209335245;0.455358941037795;0.455965335565521;0.456458391327547;0.456849409476365;0.456913203938878;0.457332515710801;0.458365848727936;0.459901375897259;0.462457304859735;0.466023929582192;0.47068798903464;0.476760809629418;0.484088289578881;0.491913959282833;0.500247228437581;0.507984135189222;0.515446635168037;0.523709331009584;0.532170290611679;0.539553667412706;0.549194365842786;0.563316670914645;0.582414558130211;0.608491508538235;0.641920793127651;0.681196281537695;0.723820923926961;0.765323554962911;0.801813195151795;0.831462742345119;0.853420222876374;0.868950396728592;0.879643599515698;0.886250118861689;0.888672279835814;0.88868605977617;0.885828535971774;0.880789984674404;0.874898867621585;0.86786459540362;0.860771898856327;0.853773018494286;0.847409895228118;0.842054208222174;0.838191038413136;0.835285878217723;0.833394960218299;0.832234125992583;0.831250086208921;0.830111409903408;0.8286351702486;0.826000410085049;0.821984741569531;0.816561597338142;0.809441967307016;0.801151645701745;0.79217128018702;0.782518424671547;0.772642994992375;0.763863209598848;0.755698133778823;0.747868399683622;0.740925291381345;0.734504592778567;0.729258061842168;0.725564799065674;0.722680794123536;0.722006164274752
0.521672071174287;0.48664427362438;0.454141889558004;0.421922068531649;0.393475147918835;0.372450017001484;0.358144314306255;0.349614466320262;0.345431229525968;0.343601730366622;0.343836898341193;0.345307907144329;0.346946853281362;0.348623989978178;0.349816953593448;0.350765352180765;0.352339717731351;0.353670296413088;0.354697325483775;0.355979065786353;0.356908826677811;0.358045555824733;0.359264719059971;0.36044060319074;0.36154119464557;0.362612051419683;0.363633081036456;0.364852961900049;0.36620241335178;0.367664509570266;0.369147090586363;0.370835142792686;0.372615501921573;0.374316396188484;0.376631191663319;0.379922375624443;0.384894541207439;0.391575063973507;0.399847705163806;0.408893747243089;0.418097537752203;0.427188088362227;0.435461521094875;0.44300306292173;0.45033745453945;0.457385798535132;0.463002435087507;0.466649989126183;0.467937859601195;0.46746001926088;0.465200091886413;0.462298746894145;0.459468568918724;0.45760808830203;0.456579412726479;0.456207758160527;0.456261275695078;0.456729804571766;0.457286583195677;0.457795722149957;0.458118228080421;0.458123964794955;0.458491646685376;0.459505474610378;0.461074675258617;0.463703096592135;0.467342934250676;0.472250781191401;0.478509522066529;0.486152862992046;0.494374864966069;0.503095386820704;0.511295192699855;0.519146576855159;0.527816114580127;0.536732487079893;0.544470865521068;0.554621252516335;0.569572424951123;0.589691889285931;0.617208765618353;0.652390369550545;0.693572398860008;0.738445954075804;0.782056736240565;0.820517149938521;0.851829386922613;0.875065280634237;0.891493833245767;0.902883312003304;0.909907793846074;0.912502527595736;0.912575673604175;0.909496116370089;0.904091755959761;0.897858666722456;0.890483885305613;0.882837788947071;0.875465779886012;0.868560992384419;0.862827937951374;0.858754722392357;0.855670872107371;0.853586044523369;0.852277003201569;0.851161754997276;0.849953743912378;0.848365424217923;0.845515771564906;0.841129921374945;0.835358701908431;0.827844727815912;0.819045625409239;0.809526828930745;0.799262465982675;0.7887817134199;0.779365060944308;0.770616661756402;0.762317048556807;0.754903812952126;0.748075264055648;0.742429172320108;0.738253846023644;0.734954704029508;0.733691144081328
0.519859337939545;0.485303125328717;0.453074536506675;0.42165767848113;0.39372378128097;0.372944508522748;0.358843893589909;0.350411357669115;0.346190982423579;0.344434494806834;0.344662623179039;0.346178839038501;0.347755206596697;0.349326638310313;0.350667478304811;0.351669073084053;0.353159258199505;0.354546289654594;0.355535117308452;0.356819533779189;0.357872262726489;0.359051723855795;0.360286461968638;0.36140991855977;0.362631869950769;0.363753389651777;0.364684072061053;0.365871817151679;0.367217867725868;0.368736784841288;0.370228639542;0.371928885396419;0.373706863434641;0.37538679061418;0.377746488089773;0.381000533058949;0.38593358655501;0.392560096930498;0.40086798984159;0.409749734307692;0.41885747562804;0.427842900328334;0.435911683024254;0.443422050880518;0.450656306046534;0.457526008410545;0.463111038681754;0.466717020547926;0.467978171143009;0.467579812436917;0.465316727330414;0.46254183398995;0.45974262157394;0.457999644717256;0.45703024699654;0.456622784865073;0.456727691267739;0.457184901657049;0.457799460699648;0.458244328561574;0.458598004334782;0.45866680114657;0.459085935431431;0.460079480167672;0.461655789137838;0.464234616016749;0.467927272063502;0.472730829304253;0.478922093796813;0.486472243271352;0.494556836172564;0.503121806422961;0.511178075152833;0.518834519724022;0.527314037863982;0.536072388229346;0.54360374952994;0.553509899578267;0.567982873084678;0.587429590802967;0.614007322644214;0.647942576713945;0.687602377518858;0.73068229868774;0.772484017262897;0.809263335974211;0.839183752343519;0.861393244234139;0.877120240789128;0.887963706653007;0.894647893124849;0.897248065535817;0.897386576130986;0.894494243353201;0.889667239100406;0.883677895226402;0.876714617007575;0.869583562572232;0.862662032528866;0.856253140420981;0.850857588674826;0.846985889569491;0.844187714637096;0.842335654265328;0.841138657454869;0.840167619233666;0.839070107312934;0.837535665976448;0.834966192960619;0.830850091872876;0.825438120530281;0.818318159722457;0.809953348571786;0.80096815220812;0.791220960419476;0.781269184961992;0.772405578822833;0.764184306757998;0.756305298400155;0.749242696536659;0.742693253956775;0.737338458970207;0.733392516543175;0.730176856178132;0.729079283790056
0.530681615872236;0.495218921470295;0.462555566803055;0.428933770464891;0.40132995281891;0.380290429500525;0.365975902084722;0.358655205551301;0.35433412244521;0.352790195312082;0.353122141938403;0.35449451522431;0.356596381820341;0.357979300184241;0.359164513898303;0.360764497875604;0.362171372863808;0.363560049194336;0.364881133362326;0.365931320018615;0.367219182787747;0.368399588519692;0.369507748386602;0.370646169520437;0.37184432316697;0.372907302192075;0.374035156781677;0.375299388235499;0.376767564691206;0.378316679406606;0.37981603988387;0.381383715631289;0.383462313455904;0.385230561236013;0.387734852238294;0.391092575214607;0.396186506500618;0.402960808784604;0.41121237768269;0.420645309474611;0.429884443326464;0.438751291428649;0.447112502295327;0.454760445708555;0.462170834446803;0.469231735552594;0.474623181855514;0.478139652366776;0.479392681497698;0.478719355062936;0.476560378292995;0.47377499845365;0.471154488735029;0.46929609557869;0.46838672792014;0.467964265789709;0.468187060158086;0.468735217372761;0.469381326513309;0.469954702352239;0.470355631235122;0.470522804930408;0.470987585599027;0.47184655515845;0.473587053901913;0.476244301278111;0.479970912775784;0.484872247380055;0.491277079797729;0.498913064378349;0.507325081834213;0.516152917183909;0.524703861217005;0.532787452645212;0.541529858786086;0.550324631612613;0.558320257347886;0.568815942251842;0.584113923038178;0.60470226956461;0.633129343217871;0.669540770168141;0.71258662232916;0.75997671616064;0.806379030698633;0.848126880537327;0.882417847512508;0.908320382992591;0.926711759129082;0.939603626860209;0.947399158633217;0.950662950422543;0.950978229707885;0.947551932954016;0.941641554592357;0.934416177604562;0.926190768841485;0.917554661006032;0.909227871790316;0.901501986255443;0.894961834673251;0.890060871823559;0.886302929075032;0.883709792193319;0.881952971852409;0.880276407049606;0.87869365029354;0.876743717710886;0.873537394920422;0.868624531660603;0.862180189806902;0.853734252764894;0.843844739110313;0.833255306841419;0.822061711093115;0.81076663330502;0.800643657452269;0.7913990374215;0.782537112998729;0.774455539118379;0.76716493858867;0.761260583551026;0.757306048823981;0.754468578965391;0.753897487239348
0.538760716634123;0.501435010403328;0.467467919495156;0.43284218844047;0.404227196429165;0.382564638225543;0.367670180309583;0.36006649723357;0.355773488613834;0.354188415759633;0.354422218188446;0.355692210969308;0.357817516482083;0.359241378825076;0.360508729534078;0.362146376134085;0.363434378910829;0.364713037182488;0.365988712710347;0.366992747366183;0.368205284292582;0.369296887816108;0.370402960706351;0.371506647454924;0.372605362108756;0.373693207042232;0.374770402215434;0.375973707755856;0.377391973971381;0.378867357662007;0.380448917933183;0.382014174069289;0.383998004361964;0.385799900915168;0.388338495751531;0.391774118401471;0.396986476948707;0.403932186449256;0.412437977515069;0.422197641312631;0.431853211790517;0.441296228327402;0.450037687908204;0.458050889705772;0.465887678539172;0.47329573259968;0.478995233767586;0.482653643097832;0.483937252796612;0.4830640965257;0.480599163125284;0.477566069698199;0.474720996380706;0.472511364460936;0.471489387824253;0.470963692477365;0.471121591278893;0.471567589557482;0.472146823495018;0.472649193996873;0.472984860976077;0.47313110300412;0.473523476221529;0.474354337815312;0.476150173000092;0.478888995139471;0.482759486853964;0.487901816613764;0.494679865867726;0.502668331574567;0.51156252503768;0.520915401586613;0.530122633405057;0.53879300154785;0.548142210996962;0.557573854719908;0.566098538010164;0.577318912088856;0.593743140087626;0.615966644194043;0.646586603567105;0.685873334565466;0.732318216525462;0.783713462446927;0.834622407773756;0.880600249753864;0.918715716282994;0.947732098680433;0.968602443746767;0.983020115619363;0.992079477120427;0.995922931816383;0.996237118075191;0.99249503402938;0.985930370268804;0.977782434460717;0.968633553247039;0.958975436683726;0.949651183004916;0.940908238846282;0.933551818379611;0.927954978837796;0.923610449321267;0.920596235046;0.918641888984914;0.916886341024209;0.915053567851179;0.912766053007269;0.909318090634105;0.903667809156438;0.896498338415848;0.887064376927916;0.876114400491338;0.864423418010801;0.852120949288425;0.839666550368016;0.828460757377241;0.818239278776154;0.808450064854089;0.799536382237899;0.791545206440041;0.785050768883147;0.780625075373744;0.777496827615777;0.776713339192471
0.536551083948171;0.499621757481322;0.465907104080649;0.431764355337381;0.403458981458536;0.382024954623811;0.367289493816723;0.359962326576427;0.355449453801718;0.354061404127743;0.354324400598536;0.355601198062296;0.357564466666723;0.359056687590037;0.360383142347246;0.361918572259905;0.363122817321752;0.364436338289737;0.365824624064855;0.366828279001275;0.368047146700091;0.369146684151278;0.370253087152418;0.371383763510658;0.372509916080318;0.373530184934895;0.374610576648364;0.37588412323995;0.377274867650844;0.378780394835927;0.380318265057765;0.381902302365202;0.383967618961421;0.385767911165193;0.388296548942476;0.391668372754074;0.396789026225943;0.403770946185531;0.412215873184674;0.42186068816599;0.431405710345664;0.440612924743301;0.449211096124283;0.457130896909555;0.464771472240161;0.472080880582641;0.477737347366925;0.481309351383529;0.482585030005816;0.481722485946098;0.479381680026196;0.476389694148477;0.473626730056948;0.471506621864963;0.470472119998294;0.469951882928938;0.470199805815373;0.470628684947738;0.471212964974303;0.471784904807338;0.472107282304638;0.472231713975936;0.472726702032594;0.473518953773647;0.475327679147826;0.478004508375906;0.481837190934012;0.486904179322319;0.493540564144522;0.501433632500369;0.510213585868616;0.519352585663317;0.52830000934597;0.536773290808199;0.545907959661101;0.555059731596501;0.563418850243036;0.574384927395009;0.590378091707165;0.611919056500537;0.641497893121103;0.679300704305541;0.723876341816983;0.772918900288474;0.821239966496673;0.864529907263636;0.900254806400601;0.927257250138135;0.946589621070104;0.960058701684384;0.968375452259745;0.971822963018484;0.972118147053169;0.968873211495814;0.962667144450774;0.955146391052718;0.946502069285534;0.937579355115706;0.928884941626205;0.920753614665414;0.913926470857474;0.908830920143341;0.904850532385242;0.902101269323919;0.900270684732972;0.898500379470295;0.896849579750985;0.894799211208081;0.891434299796537;0.886215027018243;0.879543212497237;0.870675287734988;0.860389755841537;0.84931753461624;0.837684473099876;0.825951537021135;0.815319639574995;0.805598894698928;0.796347950212123;0.787972288025376;0.780471270328028;0.774382426939086;0.770364225539085;0.767734677583169;0.767331893075113
0.54765823758034;0.508799585446579;0.473687349814294;0.438028751501577;0.408462047320975;0.386426974395754;0.371533516989384;0.363882665739447;0.359286868613073;0.358168586377932;0.358538680549141;0.360083015602275;0.362463541314221;0.36398476885177;0.365319737059282;0.366968785898056;0.368174260455573;0.369477139801759;0.370741308763832;0.371614237756286;0.372858518555218;0.373934464728436;0.374882407782837;0.375781557212498;0.376804896389183;0.377756645007942;0.378697604121263;0.379766890534294;0.381179441840773;0.382559503201728;0.384064775599598;0.385503320660644;0.387632099935561;0.389438202975835;0.392068907913029;0.395659122535482;0.401199538490055;0.408748797795012;0.417970404228503;0.428473190855083;0.438982858560473;0.44918543936062;0.45866068265828;0.467326246792222;0.475802829033522;0.483737583648292;0.489807796263029;0.493602945813712;0.4948846309006;0.493925145641623;0.491086520843186;0.487584052979797;0.484322560056929;0.481879076999277;0.480475331021949;0.479805175793542;0.479796523542806;0.480186439211238;0.48075324747379;0.481287646035482;0.481460661217859;0.481496851816045;0.481898835979512;0.482709597181477;0.48454317321476;0.487366292214689;0.491480111681736;0.497002389804607;0.504170065537117;0.512723577600661;0.522286337538904;0.532383756095174;0.542244324253676;0.5516525462921;0.561635835516711;0.571551752018874;0.580723801483128;0.592609265507573;0.60978985140288;0.632906039400064;0.664600276601908;0.705320867420072;0.75357676253715;0.806924401735862;0.860132872596977;0.908448400711736;0.94875753965317;0.979637059742929;1.00215365566039;1.01809159961446;1.028112208814;1.03275459092508;1.03345467835493;1.03026589248046;1.02411014903832;1.01603177860447;1.00653057039116;0.996618320177588;0.98688879240341;0.977622773816231;0.969774021103911;0.963810411245801;0.959077001585486;0.955758233341177;0.953486886758422;0.951434296468719;0.949576545779894;0.947178750364569;0.943363808595222;0.937690334208611;0.930195791226338;0.920533299163505;0.90929800122269;0.897223727890555;0.884605524515977;0.871953738977544;0.860472582707452;0.85003275911999;0.839853031844567;0.830748018411967;0.822931520504595;0.816463111731654;0.812235409512178;0.809893913361603;0.809980265305074
0.547922086510154;0.509521100778944;0.474558804713441;0.438790175581776;0.409108699910836;0.386969936333461;0.372284902150984;0.364478857214783;0.360077045035058;0.358842802098443;0.359182686160778;0.360703008054726;0.36303885022002;0.364680853833471;0.365974893390092;0.367473975270024;0.368710392297682;0.37003321000319;0.371303187680348;0.372199963602343;0.373410318550828;0.374463358649309;0.375388130646041;0.376289465033607;0.377338749324147;0.378265209079088;0.379209975657367;0.380267078199446;0.38161098515222;0.383049175468858;0.384515723852016;0.386009634663722;0.388041769310521;0.389879420952944;0.392491899592195;0.396098816953626;0.401732054814022;0.409240062740841;0.418510921999081;0.429037678166521;0.439524976842855;0.4497600251354;0.459217068220903;0.46794819226636;0.476344432473842;0.484275934264951;0.490314106749371;0.494137007185199;0.495405595240557;0.494394794010505;0.491652655665851;0.488089379546088;0.484833254582716;0.482320047757788;0.480971397222536;0.48029050212171;0.48022869125764;0.480675213273128;0.481267651765683;0.481713927087046;0.481911745665472;0.48198499563916;0.482309894860147;0.483117725717944;0.484978235290686;0.48788752560913;0.491960333853315;0.497459131610133;0.504633024015732;0.513216844396198;0.522806803120213;0.532915138524388;0.542832628489987;0.552240886953407;0.562197927202819;0.572226079562498;0.581404582078162;0.593328018419171;0.610656688747922;0.633778078915239;0.665594104303512;0.706368111532075;0.754847007822215;0.808427433628205;0.861517304336306;0.910020747051201;0.95037772879257;0.981145611975084;1.00361040276477;1.01938976795053;1.02942882721677;1.03386535688281;1.03455924402564;1.03128945672718;1.02490495769662;1.01684673352361;1.00715953616507;0.997180179960164;0.987400226403459;0.978122166445132;0.970349639220376;0.96433296570865;0.959557880024127;0.956162027284726;0.953902242757509;0.951890453909526;0.949894906782006;0.947522297461338;0.943729529322379;0.938000097073973;0.930481009325911;0.920806449116372;0.909614605619489;0.897528561050331;0.884902291726816;0.872210593356155;0.860800896221387;0.850274813432362;0.840108109587829;0.831064023884868;0.823276289853534;0.816893937574353;0.812710588462493;0.810600091846186;0.810816074428707
