11012;10937;10864;10791;10720;10649;10579;10510;10442;10375;10309;10243;10179;10115;10052;9990;9928;9868;9808;9749;9690;9632;9575;9519;9463;9408;9353;9299;9246;9193;9141;9090;9039;8989;8939;8890;8841;8793;8745;8698;8651;8605;8560;8515;8470;8426;8382;8339;8296;8253;8211;8170;8129;8088;8048;8008;7968;7929;7890;7852;7814;7776;7739;7702;7666;7629;7593;7558;7523;7488;7453;7419;7385;7351;7318;7285;7252;7220;7188;7156;7124;7093;7062;7031;7001;6970;6941;6911;6881;6852;6823;6794;6766;6738;6710;6682;6654;6627;6600;6573;6546;6520;6494;6468;6442;6416;6391;6366;6341;6316;6291;6267;6243;6219;6195;6171;6148;6124;6101;6078;6055;6033;6010;5988;5966
0.541096217599675;0.507171888657571;0.474226449269877;0.442568956684908;0.414246643338396;0.393375755903893;0.379812291008717;0.371824284229674;0.367603958792061;0.365141604703252;0.365377754095599;0.366034813915059;0.367155659732811;0.368648071656335;0.369787800135685;0.371112377565995;0.372450221770587;0.373764163355656;0.375324535230723;0.376633776045891;0.378067686067219;0.379298688740693;0.380545081869321;0.381987485498246;0.383103839108106;0.38420013714775;0.385573595036621;0.387181612945452;0.388401795315171;0.389933885245168;0.391516756164395;0.393138489010348;0.395020958696175;0.396823895800123;0.398851571621089;0.401961900717548;0.406262700635904;0.412310469682141;0.419679809889131;0.428017520821808;0.436269919299056;0.444575056921517;0.45222492552354;0.459172561138696;0.46596360814373;0.472503500857949;0.477450922464297;0.480616893834533;0.481805449782792;0.481186368752245;0.479100713088589;0.476704705563164;0.474257641282581;0.472692395604977;0.471832010549887;0.47142984561856;0.471684017894122;0.472252842562135;0.47287453440451;0.473266159234951;0.473841716353931;0.47408359000784;0.474628233986783;0.475625041341714;0.477235967040762;0.479842146443067;0.483410557493456;0.488190408533425;0.494333247393759;0.501595428185743;0.509522223820846;0.517853467866451;0.525992188999246;0.53363128953129;0.54191810148411;0.550383697570243;0.558099153313643;0.568404673861705;0.583340024724739;0.603643358652356;0.631119643997271;0.666164150407751;0.706826896462458;0.750892181036208;0.793626727334605;0.831553786287288;0.862521189313465;0.886114446112427;0.902746161899048;0.914659107903962;0.921894239537064;0.924768107604606;0.924761898939483;0.92165086262481;0.916235878904546;0.909637531379211;0.902138361977582;0.894259955461825;0.886603534785412;0.879445151849728;0.873372864049147;0.868844744714918;0.865382444056411;0.862846938800086;0.861111478534365;0.859564869246816;0.857979277483757;0.856146166458341;0.853057186106154;0.848509103588217;0.842831043529139;0.835280528387256;0.826453329308441;0.816855479034809;0.806723981764551;0.796449044297502;0.787272926730084;0.778871734218955;0.770912808438988;0.763587956304591;0.756832674885001;0.751719155981764;0.748730051926323;0.747002632551385;0.747017427865041
0.54680584922851;0.510710765133939;0.476478150117682;0.443644542662206;0.414229283607222;0.392652223231587;0.378470504116405;0.37039562374722;0.366009089444611;0.363573791885885;0.363772357103564;0.364519470193165;0.365897331789439;0.367402015145411;0.368394719711084;0.369797263810128;0.371176073707673;0.372327684722633;0.373810583888316;0.375073748807671;0.376486904141117;0.377645968137733;0.378832757462557;0.380191612044651;0.381185605219378;0.38221412886568;0.383594440989439;0.385150748748772;0.386349373176577;0.387875075714263;0.38939061401268;0.39103657622724;0.392952010248895;0.394813835342679;0.396868082387694;0.40010372470181;0.404566171152698;0.41082780014174;0.418721805038758;0.427557213960793;0.436369784976861;0.44522225423927;0.453375173804362;0.460811074610151;0.468187698335889;0.475157089589132;0.48035232178425;0.483691814259924;0.484842538264542;0.484034408030301;0.481687066532446;0.478924579568568;0.476251842823981;0.474511531802722;0.473446859392816;0.473032613328634;0.473201853802945;0.473715917707827;0.474360551983359;0.47473162127144;0.475221166326112;0.475452258340345;0.475958079412321;0.476933593195319;0.478649268717891;0.481353686283283;0.485087433867929;0.490179686318368;0.496701069563715;0.504427774150638;0.512937172869826;0.521886792266261;0.530730551873494;0.539010198736665;0.547974538108803;0.557116227147031;0.565500716396599;0.576693001367999;0.592925370248458;0.615149484091898;0.645213361418261;0.683565606084013;0.728307751417083;0.77721383928176;0.824889035770966;0.867706042271139;0.903240452662634;0.930303049728677;0.949674775676682;0.96353120039925;0.972030588789958;0.975598900707355;0.97568020042766;0.97217680059966;0.965993153443298;0.958378778160452;0.949722351683332;0.940484292744369;0.931630066103107;0.923469144873516;0.916420704579732;0.911179152452094;0.907180790775012;0.904180914019923;0.902123801866658;0.900378051300043;0.898570516912921;0.896319403592824;0.892815817352554;0.88764237548582;0.880976170446254;0.872281465318021;0.862214657183758;0.851170386937289;0.839553679394754;0.827852908528988;0.817389930486094;0.807782799460369;0.798668161329237;0.79032255752932;0.782645837102619;0.77677125958193;0.773280776855382;0.771011739778445;0.770808519227628
0.551213010818933;0.514807571035735;0.479739632732619;0.446391951814076;0.416709160824549;0.394972969741908;0.380713159133167;0.372596041883567;0.368240366202998;0.365619978354163;0.365722389966219;0.366602956384024;0.36789007981885;0.369305730922973;0.370464412605583;0.371868759652952;0.373111309953229;0.374284932734107;0.375805184461836;0.377041474007719;0.378470919371543;0.379633840335169;0.380750622831757;0.382102100963709;0.383113177730742;0.384135343450344;0.385403732013908;0.386967501434939;0.388158737066399;0.389701686791941;0.391267244390164;0.392806168167015;0.394715429763801;0.396568178426436;0.398610751326259;0.401839184241638;0.406316602393143;0.412633577238185;0.420542475198711;0.429401142466263;0.438313905705213;0.447132078679439;0.455350886278223;0.462933830786545;0.470328822716019;0.477316122936454;0.482630550943202;0.485937148082987;0.487102776948937;0.486225634418141;0.483868171969906;0.481018063955155;0.478298222697929;0.476468653245933;0.475367255122336;0.474881433985135;0.475057880096102;0.475578950497797;0.476170973073465;0.47649571337287;0.476968366546968;0.47720052069585;0.477658026842462;0.478639724251173;0.480273834631811;0.483053662058412;0.486809843947409;0.491933371291147;0.498460813098977;0.506292458202334;0.514858871906225;0.523845111502059;0.532721402527311;0.54113954714085;0.550098158057793;0.559278051049858;0.567751819640605;0.579009782998788;0.59536278623798;0.617694004464801;0.648008227303417;0.686816171315301;0.732071615452845;0.781764981352659;0.830447820294759;0.874464084949211;0.910880506536959;0.938671946008422;0.958673253645873;0.972944915183684;0.981832296348476;0.985589938976292;0.985740368295281;0.982027262823751;0.975609986136716;0.967499699253275;0.958497570648894;0.949026250649448;0.939954090439667;0.931461649067434;0.924186339617749;0.91871355530573;0.914440791847064;0.911315097270448;0.909150354942343;0.907237260960321;0.905336398922885;0.903034053464716;0.899368956335047;0.894069349277618;0.887197332233012;0.878289508347949;0.867925469558424;0.856669747844612;0.844808852762986;0.832910803625396;0.822134369001504;0.812240764715931;0.802951403276116;0.794438654116508;0.78660019587017;0.780703964169409;0.777220599720453;0.775255668397807;0.775300192040439
0.540439858680181;0.504350778433183;0.470831276478971;0.438116636220128;0.408823270385813;0.387406533100199;0.37365388313796;0.365618365766006;0.361355722593828;0.359233135552496;0.359603343201886;0.360671818005385;0.362145276311022;0.363581315441373;0.364862318647341;0.366377245794558;0.36761732378962;0.368844909503852;0.370216619971521;0.371372426843781;0.3728835246089;0.374007618268242;0.375098058654248;0.376532066356053;0.377530761510603;0.378489190990691;0.379773450401249;0.38134536125596;0.382565895791651;0.384022293183278;0.385638920307248;0.387225252967377;0.389184349003031;0.39112528025316;0.393210976459375;0.396604762114197;0.401341880244772;0.407861786561344;0.416085626891371;0.425150597692309;0.434195258866612;0.443104368654417;0.451230632947214;0.458698643650717;0.466029517676301;0.473000347650264;0.478401050056318;0.481836268959147;0.483120631922444;0.482481734968988;0.480137237816139;0.477278324004157;0.474604010199739;0.472825638373563;0.471760710401118;0.471353854359247;0.471512924035692;0.472095819896477;0.472701165411345;0.473035194686464;0.473546089167372;0.473788315355317;0.474356150271807;0.475335853561788;0.476989726839986;0.479736355839214;0.483450215963202;0.488480529760879;0.49488829556778;0.502492046650943;0.510860001806714;0.519567886727228;0.528126929031648;0.536192385880643;0.544862813445905;0.553716245293261;0.56186064824321;0.572578650402765;0.588142507167841;0.609387555826508;0.638175497013316;0.674965282273858;0.71785231327112;0.764694059755888;0.810455227446663;0.851372053211978;0.885126917097812;0.910576056707242;0.928750019593498;0.941603967194004;0.949400638303962;0.952459962874953;0.952350982621336;0.948663375719123;0.942489844171476;0.935074646987252;0.926646096802044;0.917952839506516;0.909675626086893;0.901960207512312;0.895431295424173;0.890505148052894;0.886794907297441;0.884140963296783;0.882335034084927;0.880720350579708;0.879084689612611;0.877129077135565;0.873789666806907;0.86892598850932;0.862737378662827;0.85446052176188;0.844910335079229;0.834562762923343;0.823551318939428;0.812465460922584;0.802446542530853;0.793299035311929;0.784678161532702;0.776864779653572;0.769813522863847;0.764372838066656;0.761325503342836;0.759970468780791;0.760412004892365
0.544053430586835;0.507384586188127;0.472801127922966;0.43981243066513;0.409963771705703;0.388546059327425;0.374349404419025;0.366211092748019;0.361968540939326;0.359504351795067;0.359902740653989;0.360858393782097;0.362167673257098;0.363589039760605;0.364772381485287;0.366198679246299;0.367418713689974;0.368563435464392;0.369950848386768;0.371114929315114;0.372533366004053;0.373684376821611;0.374744463869081;0.376099652723942;0.37714185412729;0.378157825919695;0.379433925255144;0.380955425841502;0.382167010806349;0.383684474584141;0.385284129228189;0.386800478812762;0.388772006337851;0.390688240911747;0.392781919560051;0.396142172950738;0.40083957066835;0.407277440968517;0.415452473947966;0.424554773270084;0.433619317474321;0.442646211742925;0.450841818170652;0.458339645405977;0.465685856681501;0.47278590633942;0.478293388974017;0.481767521490904;0.483081003536534;0.482401543248899;0.480013143858032;0.476983084197285;0.474199141919539;0.472357083376323;0.471165540783407;0.470748585123902;0.47082691039261;0.471402070621573;0.471941042617308;0.472250394685478;0.472796999983181;0.472982150864871;0.473526448141494;0.474505444979937;0.476176043242359;0.478912543332415;0.482645857605643;0.487761998673906;0.494290142842698;0.502030535755217;0.510564112635208;0.519507838739894;0.528331086104971;0.536668374679997;0.545619855055667;0.554785279744522;0.563272501291576;0.574547951095871;0.590851004050935;0.61323126710099;0.643609641502316;0.68261097107928;0.728418815974527;0.778780912466457;0.828298698135982;0.872901359585683;0.909723954737428;0.93789581442967;0.957812099983992;0.971871807211891;0.980425552438748;0.983697641923576;0.983483528028111;0.97929572703577;0.972039547429447;0.963516425999397;0.954056150237517;0.94420363206348;0.934782285930751;0.926102837771967;0.918710674019439;0.913235965243992;0.909037627856554;0.905986116952419;0.903845621507267;0.901920704554176;0.900034295676263;0.897784182297516;0.894130266087173;0.888728074488204;0.881794815696984;0.872716011108536;0.86223805861333;0.850904417029811;0.838953494650157;0.826932377225056;0.816152146314711;0.806288109399357;0.796990515448797;0.788582018153179;0.781058485373461;0.775347568137621;0.77200332230644;0.77052012469964;0.770975086421034
0.550198815520394;0.51259448120512;0.477178498504826;0.443053652604862;0.413012563711206;0.39099169675533;0.376492174546569;0.368599967049207;0.363923223000729;0.361736135464444;0.361981034007553;0.363052576428529;0.364588339987717;0.366011813139944;0.367224645395104;0.368619248846823;0.369799807843803;0.370917366225959;0.372285618570837;0.373520639566987;0.374873141520414;0.375862555534847;0.376800552924182;0.378235740911826;0.379172852582484;0.380054472330166;0.381235124350695;0.382787913270613;0.384002525554811;0.385407107526321;0.38699386258421;0.388580592064169;0.39047805037034;0.392376546084762;0.394599807451467;0.39802655046957;0.402851315992429;0.409610410023653;0.41810777373333;0.427607547166107;0.437035510061048;0.446440024178689;0.45502696094213;0.462847586343708;0.470565667185238;0.47788232740371;0.483586404277504;0.487148373919841;0.488453381169267;0.487674418388028;0.485057046573505;0.481924655735193;0.478890303338916;0.476887493493483;0.475680616525676;0.475153457992402;0.475288106779429;0.475764512165974;0.476271737530286;0.476620628120127;0.477051078401481;0.477228669027364;0.477758223597234;0.478693986684247;0.480479663892844;0.483236367508701;0.487100243924249;0.492451210211376;0.499194949791262;0.507244638205265;0.516092626883149;0.525463525385796;0.534612091727466;0.543257387314952;0.552542873796456;0.562045968749601;0.570884775538186;0.58253843768481;0.59948394173801;0.622662963207775;0.654209625085881;0.694807112453027;0.742582320110068;0.795232045027322;0.84748294664313;0.89491171151605;0.934370622448182;0.964774047768327;0.98651729487662;1.0019335206769;1.01138227911702;1.01525069066074;1.0151785461499;1.01072237684999;1.00323172337148;0.99407470206756;0.98388717059407;0.973419345625961;0.96331003627009;0.954075685544196;0.94615894431413;0.940193566356271;0.935718010574152;0.932450455849231;0.93020984428068;0.928189031414579;0.92615046489132;0.92376418833081;0.919858216589944;0.914116374344545;0.9065972280738;0.896951993033216;0.885931722480596;0.873808503791828;0.861002985967364;0.848269562293933;0.836853837527445;0.826394504625184;0.816544801970198;0.80764835375797;0.799634114460353;0.793504961150607;0.790009398606083;0.788360538580285;0.788804144827472
0.517488288701163;0.482878030807018;0.450329247387674;0.418448200638443;0.390454358273997;0.369217206330899;0.355317151658041;0.347254169151835;0.34236111091515;0.340375645026833;0.340248996292138;0.340754956373095;0.342055136626696;0.343374062685259;0.34484696084098;0.345998174012973;0.347128782738907;0.348601214643065;0.350084295858326;0.351367688806989;0.352345289610274;0.353857811514812;0.354959625673984;0.356276664742469;0.357435474935394;0.358479785337212;0.359851019937211;0.361008749248506;0.362419518427475;0.364005453428711;0.365413112027962;0.366862340168119;0.368799524325009;0.370682468852048;0.372827058065763;0.37601602944924;0.380303252400769;0.386385528967663;0.393953514714034;0.402089146106303;0.410470382465743;0.418826487510342;0.426586796520605;0.433940750270853;0.440955041539051;0.447574910857372;0.452482871930005;0.455611812517199;0.456694749916805;0.456071696868338;0.453922601536291;0.451350451665586;0.448890251292562;0.447171112489017;0.446240000446162;0.445854534996033;0.446204083610772;0.44675882030198;0.447391883697066;0.447968729374082;0.448332177464314;0.448448027992464;0.448892570979213;0.449830984188098;0.451419951847891;0.453887155221806;0.457426761038385;0.461981427048552;0.467946278791301;0.475207027123889;0.483034246691584;0.491456276099143;0.499651808915922;0.507280389089694;0.515763102315983;0.524128123946657;0.531487698565461;0.541409132849024;0.555615712274678;0.5748428533766;0.600926226737845;0.634157236637769;0.672763707252901;0.714674301456503;0.755027822134622;0.790668929353539;0.819579340671166;0.841393587363614;0.856855867986795;0.867824551270404;0.874755953139441;0.878027722713046;0.878504500502135;0.876531556179869;0.872689446654625;0.867572198023285;0.861435540643621;0.854745463869297;0.84801117739902;0.841668874750038;0.836095353153322;0.83187509702629;0.828600340605199;0.826184024124231;0.824537185239958;0.823204018785342;0.821847268163328;0.820222503300299;0.817465234100162;0.813287988596298;0.807893009030897;0.800935472130094;0.792441297447141;0.783486537230958;0.773972658255501;0.764313266452738;0.755669183427957;0.747716534998582;0.740166345919465;0.733287927896507;0.727057796002521;0.722269795961535;0.719681191306065;0.718818634041867;0.719518150241701
0.521146330165951;0.485995388528676;0.453019314872994;0.42079542946006;0.39261736523152;0.371146980560872;0.356967114025414;0.348630483590406;0.344016858123463;0.341701681987212;0.341546039442025;0.342057141374494;0.343281286660042;0.344665216235631;0.346182212166964;0.347207217457015;0.348268152818589;0.349705787663548;0.351103746943697;0.35246368449531;0.353428666492722;0.354873780624077;0.356049650668083;0.357265292175512;0.358416139895987;0.359470664082932;0.360781042814581;0.361867110529954;0.363287391829991;0.364906992348707;0.36625217084843;0.367736918322979;0.369699584188777;0.371492753594868;0.373676573520264;0.376768185136417;0.381109457067015;0.387279597280166;0.394856416408974;0.403094390028708;0.411524810826933;0.41999371313263;0.427821034087468;0.435208044097332;0.44225442262214;0.44891137310718;0.453892218803895;0.457084488056505;0.458134690160183;0.457430371900259;0.455305658479794;0.452676555483305;0.450170524631443;0.448408391439201;0.44746026646905;0.447112502295327;0.447363414329628;0.447906357066037;0.448578305286399;0.449080384615489;0.449422761159573;0.449467135906033;0.449998273213825;0.450946195907805;0.452486934334409;0.454964309587875;0.458530217048043;0.463082150754067;0.46910726499062;0.476373045627763;0.484258450883421;0.492786063538324;0.501123164665973;0.508807153452107;0.51733690020891;0.525825272784966;0.533323481612247;0.543367853233896;0.557773983201722;0.57728675007656;0.603941428989852;0.63792939546664;0.677487552050323;0.720581066932966;0.762148494348447;0.798910268271292;0.828891649254027;0.851450092968361;0.867496968769076;0.878879596517107;0.886006539682196;0.889318390592399;0.889872099283125;0.887729560858179;0.883704143601398;0.878345625805726;0.871921400327929;0.864899802610279;0.857906004680118;0.851396728298774;0.845613766798222;0.841134138770899;0.837789086937668;0.835276664661792;0.833547979557451;0.832119629307459;0.830712136612117;0.829059496609657;0.82622535526052;0.821900580775698;0.816259380047404;0.809076103944363;0.800268950887974;0.790998131299675;0.781178385307818;0.771280198152202;0.762314284845578;0.753999518476894;0.746170540980789;0.739114238698844;0.732722645244613;0.727802046634126;0.725107936210912;0.724197260728349;0.724874844487982
0.517284162506098;0.48309421259673;0.450716745114134;0.419117201952016;0.39148594712549;0.37028701049151;0.356420705650433;0.348290523315403;0.343484481451305;0.341257028001956;0.341077922209084;0.341669061098487;0.342957539690242;0.344242560401693;0.345748161260703;0.346750331508356;0.347773681497812;0.349280723887105;0.350786682848147;0.352156667501698;0.353159258199505;0.354731529569219;0.355884839048691;0.357129668377818;0.358260238063281;0.359381637752804;0.360747554916638;0.36188989283486;0.363309647250535;0.364891798749913;0.366335853002928;0.367727195606955;0.369708944200719;0.371529532428722;0.373680372478406;0.376816686013162;0.381101205874234;0.387054107522297;0.394537213992163;0.402546704489017;0.410778591635326;0.418961393102396;0.426471067098864;0.433689691621752;0.440582740333774;0.447014268922269;0.451804859989909;0.454953167013053;0.456046624529905;0.455418303027109;0.453468934313459;0.450942761223535;0.448590139523548;0.446935868375047;0.446040311376212;0.445680350891793;0.445974092141807;0.446519428069803;0.447210271424284;0.447789554906313;0.448152365493963;0.44825268529703;0.448753655805961;0.449669141077986;0.451280348792191;0.453677624099563;0.457172208693343;0.461638564422426;0.467504746677063;0.474559193279234;0.482171997186373;0.490436611944821;0.498441654507333;0.505872967852093;0.514160790661458;0.522371351544883;0.529587009706213;0.539304775076201;0.553201961817699;0.572050306716871;0.597703187440757;0.630374354568134;0.668608744330287;0.709995678949946;0.749907305774178;0.785249906124058;0.814022352598092;0.835582302346065;0.85092998990783;0.861933622316875;0.868826121796614;0.872048181618322;0.872548876474775;0.870679479578363;0.8669595388761;0.861865682804833;0.855807018046358;0.849153948192114;0.842467078341504;0.836235327196522;0.83070596053579;0.826461192617336;0.823303177760303;0.82089479658814;0.819208277479686;0.81784651638782;0.816512351743182;0.814991054216863;0.812311515974967;0.808107649187136;0.802817617310218;0.795986975530011;0.7876206023528;0.778758209995692;0.769398336014188;0.759854283893979;0.751375045019363;0.743578618021789;0.736149558824529;0.729417580946223;0.723289868775456;0.718652962606367;0.716166634310475;0.715443846484339;0.716184256276486
0.533131934976;0.498175847848583;0.465343862240033;0.433303187099195;0.405017077972065;0.383828966559386;0.370342332611227;0.362650287982347;0.35845053899958;0.356323028861895;0.356759389951317;0.35786424340576;0.359391175415315;0.361036672439919;0.362276274828544;0.363608200678006;0.36496193522832;0.366298905697059;0.367724562408824;0.368995008816113;0.370476133275211;0.371669627012066;0.37278811989936;0.374198471384873;0.375310724815391;0.376283164164454;0.377611257888567;0.379217775026045;0.380415338581176;0.381885769983096;0.383470714646012;0.385024470445638;0.386924204866949;0.388863119830661;0.390942975722084;0.394186275985509;0.39878248800438;0.404972826916361;0.412850614111643;0.421683708882346;0.430458024020494;0.439178253604048;0.447140225633476;0.45442249258523;0.461635295575459;0.468623920737678;0.474046071363318;0.477668462925911;0.479059748473409;0.478631879641057;0.476339750500857;0.473579300027928;0.470872114353131;0.46911698597016;0.468025758886055;0.467615501898789;0.467849850566741;0.468338079169639;0.468899339301005;0.469199878949431;0.469704741902827;0.46988742565261;0.470304067993328;0.471189316491951;0.472709935394807;0.475281230637226;0.478698694106461;0.483470972006007;0.489630619675061;0.4969168808717;0.505000884561552;0.513467654550826;0.521847941109164;0.52967449439039;0.538106825773373;0.5465041554251;0.554090185870562;0.563939177520984;0.578146589980852;0.597560808209425;0.624134006256817;0.658355996175395;0.698601444752297;0.742627218491686;0.785464504549487;0.82364361272495;0.854846807870361;0.878181231994717;0.894641078235753;0.906334967975035;0.913391411202148;0.916402075172138;0.916488780364148;0.913508121162061;0.908105229433203;0.901637705121445;0.894346436565451;0.886689842716334;0.879506025820044;0.872841404307648;0.867259521895046;0.863214768990485;0.860149867529366;0.858160320570488;0.856982387776349;0.85590175344344;0.854822557766848;0.853271811962274;0.850533009829214;0.846246093544813;0.840637972142806;0.833160060595797;0.824348469500202;0.81466101669566;0.804476437903606;0.79410169864016;0.784808855266939;0.776205373398162;0.768086402294934;0.760729808577853;0.75407667395104;0.748972166983722;0.746048308925892;0.744635337735199;0.744997565255181
0.532669724574437;0.49794560448586;0.465524086130412;0.433656094500692;0.405311721751489;0.384359953836482;0.370727439366383;0.363087945957627;0.358995339817346;0.356863288956562;0.357445365583066;0.358449646769391;0.359920446468376;0.361593816049596;0.36284502637026;0.364348298147618;0.365707974273021;0.366932492352341;0.368392792489423;0.369626440608679;0.371109519624782;0.372315299860572;0.373473121126128;0.374961899845248;0.3760400823959;0.377073965651191;0.378359645197901;0.379980084857937;0.381260617413063;0.382775750734788;0.384324281945895;0.385870856888655;0.387803579419585;0.38964032785854;0.391760738227734;0.395031851309579;0.399540942345473;0.405769262748255;0.413620891542858;0.422369202217317;0.431068804674377;0.439701968517928;0.447573937104566;0.454892878260927;0.462046609109606;0.468937183061338;0.474389682081404;0.477971740660941;0.479356796773464;0.478884416472445;0.476702492790326;0.473988764656081;0.471296516119668;0.469573989578616;0.468582271696533;0.468179529730825;0.468402817682479;0.468965568045826;0.469529944770645;0.469812984918312;0.470305991884936;0.470498167465078;0.470927084599004;0.471866635241505;0.473340806797644;0.475882720832652;0.479317117483074;0.484070946139577;0.490141959389439;0.497407661030676;0.505428432959706;0.513840242524428;0.522037030185353;0.529751554322502;0.538099779078419;0.546462732854564;0.553917246922852;0.563615807933493;0.577705370618186;0.596933211070074;0.623166374125291;0.656980180162371;0.696711259767083;0.740154408383506;0.782525268190993;0.820160497893278;0.850908730421734;0.873948507676226;0.890157986804097;0.901550106204353;0.908455787500844;0.911401855138465;0.911406104948693;0.908352735556056;0.903174769549858;0.896777665124691;0.889584042246339;0.882230711644763;0.875154863938371;0.868586021898656;0.863182123741728;0.859259787755418;0.856294939157023;0.854390945985209;0.853250127766425;0.852153082539425;0.851090239807885;0.849671312925566;0.846959021315889;0.842697090634499;0.837206857593223;0.829780248869506;0.8211142353583;0.811615497901336;0.801507591348697;0.791190348200107;0.78188796762471;0.773419168084855;0.765381494139366;0.758078902811247;0.751484082017021;0.746380230915777;0.743381099728839;0.741920427787417;0.742234814812957
0.544797337340093;0.508319006984348;0.473887881830833;0.440219135181701;0.410600257524705;0.388717581259141;0.374692488908868;0.366573561919077;0.362268573822561;0.360107794333409;0.360680786160738;0.361733838008807;0.363369903009085;0.364926211503314;0.36608263521498;0.367477619137799;0.368760031910144;0.370019566826675;0.371436058994233;0.372626563805565;0.373962306828365;0.375080444180484;0.376154481165165;0.377496371210849;0.378483584843978;0.379471486866874;0.380745300493785;0.382217793817899;0.38340655467548;0.38491087243071;0.386442305977174;0.387958467568064;0.389844251947453;0.391758383359817;0.393935979274237;0.3972576169892;0.401995105867284;0.40854804145925;0.41686280269512;0.426185354469548;0.435381036177598;0.444614707820404;0.453023875322279;0.460806557136502;0.468469992494548;0.475859206435461;0.481573849121521;0.485358757918257;0.486757089028058;0.486117479465193;0.483550039140616;0.480506449872554;0.477482477332973;0.47545355622835;0.474211824740751;0.473745133877375;0.473789737572833;0.474286893919311;0.474768421682749;0.475070328671347;0.475434088315537;0.475547533627487;0.47596821483958;0.47681861350967;0.478418560571144;0.481043699928098;0.484699326400628;0.489717254153562;0.496256424792519;0.504034892085335;0.512646369667425;0.52177342593928;0.530714927129293;0.53918631934588;0.548277562406045;0.557388081278516;0.56556459816935;0.576240487471233;0.591739168696734;0.612977521402574;0.642003632305556;0.679549814104134;0.723968797355632;0.773064644902036;0.821444609167792;0.865051286624965;0.901020388214568;0.928296899978332;0.947753276911799;0.961472428536536;0.969859910022981;0.973469186816539;0.973585641399408;0.969810076175853;0.963448150842054;0.955630776786192;0.946953841554163;0.938060343947461;0.929435016622933;0.921550069810306;0.914918590099956;0.910100184867066;0.906592324563146;0.904180217401634;0.902678123744556;0.901318556220451;0.899914942212373;0.898062620332005;0.894778418887562;0.889752473457177;0.883162220556316;0.874473843257403;0.864280413828498;0.853118806629676;0.841369172701955;0.829483064882374;0.818770286661994;0.808944054557956;0.799707770359111;0.791303677909229;0.783754638333593;0.777985989351011;0.774570011524537;0.772889808721855;0.773201679144656
0.542389205779822;0.505678262613092;0.470727529592015;0.437136621417377;0.40754254140665;0.385722094967539;0.371426048824513;0.363268846517363;0.358949384299511;0.356561833140018;0.356978179625759;0.358083392428606;0.359679092829137;0.36134185031217;0.362607947695462;0.363954948647142;0.365222857828942;0.36644742063739;0.36778999198484;0.369045899992652;0.370430679226182;0.371484580943641;0.372571359616079;0.373875909678747;0.37478584244285;0.375688092573466;0.377062996862809;0.378533108310506;0.379648829869408;0.381138598609952;0.3826521525574;0.384236640451709;0.386156381775774;0.388057794790304;0.390136987490073;0.393557042539806;0.398350393645021;0.404989710203654;0.413234288700906;0.422458913982602;0.431572149551177;0.440715711204968;0.449167480527867;0.456832747359045;0.464388694946382;0.471658413847842;0.477221240818238;0.480699121252172;0.482037701104334;0.481330531587042;0.47893282196619;0.476066332805397;0.473263705640139;0.471316570786575;0.470246611692081;0.469771349796514;0.46986884630546;0.470413871711054;0.470975381958672;0.471319913321096;0.471770490956222;0.471893281400504;0.472325769847573;0.47323503834896;0.474800948585993;0.477466438828086;0.481064867179643;0.486077709693846;0.49254907409789;0.500271963693747;0.508737084369075;0.517774913406766;0.526689849326689;0.535059104382738;0.544016648639624;0.553012928202047;0.561127902479749;0.571764584466923;0.587207264564952;0.608354361371086;0.637389555409596;0.67503535338554;0.719568695533536;0.768901145332191;0.817606748937786;0.861315290749879;0.897394462964384;0.924684845835495;0.943903917577352;0.95762809851601;0.965747452948627;0.969051121000675;0.969035348805117;0.965285735583363;0.95884703257954;0.951175735152518;0.942534356700852;0.93340724259251;0.924639934929843;0.916537873209623;0.909572636979705;0.904492065771988;0.900740739138317;0.898036519913344;0.896283488660172;0.894787281066388;0.893248317030634;0.891206051127059;0.887803682188602;0.882667377011024;0.87595443923415;0.867182427584652;0.856943959350374;0.845867074300141;0.834112278699388;0.822346068868834;0.811794817970824;0.802100289970281;0.793069474304946;0.784633724041139;0.77683152576528;0.771038911396556;0.76781863806231;0.766243904679311;0.766427245081726
0.551305580854097;0.512447615327423;0.47695195630375;0.442241437202269;0.411567269807383;0.389242344484737;0.374399487117184;0.365910039243311;0.361316302521269;0.359019858033158;0.359395546913968;0.360551662587551;0.362153475059048;0.36363639183677;0.364750352738382;0.366086671008659;0.367391186735445;0.368554607459089;0.369796856766122;0.370933792375287;0.372196893845368;0.373125563322873;0.374092602808764;0.375439673470972;0.376336466204083;0.377214928888244;0.378392546998767;0.379837075839134;0.380925983379438;0.382415851941055;0.383885305183499;0.385451202567035;0.387389577922357;0.389196373117882;0.391379736882918;0.394840569296552;0.399722095894454;0.406612240209332;0.415133588763424;0.424697243943688;0.434211074707107;0.443697257958068;0.452458005919109;0.460549640424063;0.468399369826082;0.475900519869362;0.4817180089834;0.485354376095383;0.486665582435603;0.485882239017016;0.483225532503761;0.480072431685106;0.476912365888599;0.474808594705727;0.473556039236561;0.472975569236636;0.47303067732033;0.473471277116995;0.474009590823967;0.474277056529546;0.474678499416926;0.474772438817827;0.475122071886043;0.475973282641913;0.477584981279277;0.480291158335188;0.484119271186477;0.489308507132756;0.496089800300276;0.504173948062909;0.51314223827399;0.522671202116853;0.532132283162683;0.541064515795962;0.550522989322967;0.560042845055316;0.568672267692705;0.580053333809204;0.596540072161835;0.619113774217759;0.650007010657657;0.69015805921096;0.737766824130343;0.790712647596973;0.843225885464983;0.890847182550125;0.930429944850522;0.960666401328804;0.981927269082441;0.997072322405436;1.00630957220587;1.00988718814026;1.00969520624821;1.0055162457333;0.998278831734697;0.989424031763059;0.979740672489239;0.969469900250785;0.959581621368759;0.95050946550581;0.942776782763366;0.937009858012184;0.932668719791832;0.929516978761736;0.927444254976363;0.925701878027117;0.923869140993835;0.921487358030294;0.917751548427272;0.912005035617047;0.904604316294902;0.894916143943046;0.883713779478909;0.871530939562858;0.858749075510321;0.845922200432466;0.834417394370189;0.823876893850025;0.814020937534489;0.804982833725625;0.796619218127335;0.790346944645916;0.786887242054253;0.785132584171733;0.785311625424902
0.554536070032754;0.516016955160123;0.479392026640404;0.444503380185116;0.413511941831461;0.390942121015899;0.37592695224106;0.367435514085767;0.362927153047626;0.360369301096598;0.360745561670803;0.36188689509488;0.363491843729981;0.365016985706768;0.366154982506223;0.367518209843156;0.36878845796485;0.369947387301122;0.37125131660214;0.372415002904754;0.37375820709781;0.374727275421578;0.375643533734005;0.376933358493842;0.37785594657801;0.378729492778699;0.379959771166529;0.381357797317199;0.382517901267781;0.383954266879903;0.385428732525136;0.38697438270512;0.388834731196504;0.390704471126086;0.392935373835579;0.396274321914797;0.401174707313873;0.408050556945011;0.416574159592727;0.426183616428393;0.435753167118204;0.445328317189228;0.454183288734978;0.462385638053881;0.470281623220942;0.477892507838622;0.483741023161351;0.487416319493981;0.488718252718525;0.487871231766381;0.485215906711669;0.482020571126551;0.478848966141542;0.476681406932415;0.475415399940216;0.474839569347628;0.474901914132263;0.475320283382056;0.475845695976526;0.476122224470124;0.47651887193579;0.476590957614246;0.476944402590675;0.477773881428542;0.479375524562539;0.482095948083263;0.485903776370375;0.491137516775947;0.497985792573445;0.506112189261004;0.515196671021767;0.524811160836788;0.53431087074211;0.543399420086531;0.552947452984144;0.562633973835859;0.571386449621723;0.582934890402779;0.599678953001865;0.622719071370103;0.654385170591852;0.695618059420953;0.744784922074848;0.799836766727951;0.854761938431484;0.904825764962975;0.946700622168036;0.978904187708438;1.00183594647043;1.01815141441179;1.02811387682863;1.03219947636154;1.03218446288349;1.02786161607512;1.02035335111315;1.01096322542898;1.00073997296985;0.989806085231525;0.979324299218246;0.969718121405004;0.96159485312906;0.95542143705072;0.950897933924793;0.947675500112186;0.945448608913671;0.943590679350082;0.941794215643109;0.939349745822652;0.93532192417363;0.929203243496044;0.921394213315022;0.911155083324907;0.899313844395669;0.886314962680202;0.872800898669783;0.859340514527109;0.847217086292243;0.836131682506007;0.825778198360762;0.816196515682488;0.807329420937652;0.800649146041242;0.796897729372062;0.794911535579197;0.794952432747864
0.515935740297492;0.480571583460754;0.447921827486755;0.415896726950719;0.387729973870319;0.366506699446775;0.353016980104131;0.344754830259288;0.340553510025045;0.338706412509595;0.338834981091635;0.339677254960337;0.341151365703589;0.342691010028541;0.344346002507388;0.345517056402549;0.346573576498676;0.347941442481394;0.349333045359951;0.350615093193332;0.351626423628013;0.353091197823595;0.354075634649804;0.355212441037206;0.356381829630098;0.357427463675896;0.358600856383256;0.359746702079566;0.361190182328421;0.362689829329866;0.364151880204638;0.365553867149171;0.367528130343056;0.36954415609047;0.371755688541506;0.375053766308725;0.37966767161506;0.386220632258832;0.394382654335533;0.403222077613276;0.412224176204133;0.421070059029661;0.429156426942155;0.436852001407978;0.44428346808865;0.451161653966935;0.456406464352893;0.459783055850031;0.46088135247385;0.460210161465498;0.458017473796202;0.45520865144552;0.452659929538964;0.450852978399543;0.449738250371671;0.44938560232569;0.449749259947217;0.450316753215587;0.45092485223849;0.451478163739289;0.451789004818045;0.451875908100536;0.452402001059726;0.453404163378937;0.45508268614373;0.457641348152378;0.461409930191751;0.46629249339801;0.472509946423645;0.480114672640753;0.488344803770749;0.497135391695702;0.505731140319492;0.513660498718879;0.522462456450797;0.531104829275476;0.538918560119941;0.549298044750252;0.564219318227404;0.584482788316503;0.612110844179276;0.647151110078833;0.687975689486034;0.732414832302453;0.7754837708396;0.814009334186853;0.845424491551167;0.869206765886963;0.886210682511072;0.898175969293314;0.90573541124265;0.90928108454435;0.909759587332782;0.907269883730161;0.902783309675607;0.896859854241204;0.88974202882245;0.882338015094326;0.874903100430348;0.868112310373279;0.862142247234132;0.857572362700772;0.85424623922559;0.851833400753378;0.850192370639303;0.848830946260352;0.847430678480467;0.845727919559425;0.842763003600017;0.838318221063065;0.832428071969908;0.824964490145193;0.81591928147369;0.806265034544625;0.796021185991842;0.785691670489265;0.77643008211834;0.767893452891141;0.759585054338395;0.752264802068241;0.745934095407369;0.740743558996583;0.737272521148352;0.735769816044167;0.736435649174048
0.514939601335649;0.479712894004703;0.447249190634672;0.415064802645614;0.387301103827771;0.365921839354848;0.35229631817408;0.344406371112796;0.340043983508595;0.338280333459728;0.338371005938669;0.339182221149178;0.340615256673723;0.342132660281385;0.343836802484783;0.344927098636433;0.345903294755919;0.347323350033537;0.348711613467339;0.349978408639327;0.350991763944661;0.352466422331097;0.353519715290439;0.354651625953128;0.355774572418526;0.356842250363937;0.358097161016086;0.359194801424879;0.360639035991029;0.362179972071433;0.363626660162334;0.365076673542802;0.36700477915044;0.368958240858483;0.371162088337711;0.374511088438386;0.379053393971155;0.385435800441153;0.393556505123191;0.402234192128353;0.411084110022905;0.419774790495296;0.427728928818839;0.435357485324233;0.442548141083493;0.449389513632171;0.454505472085139;0.457842456334382;0.458919857400908;0.458306581565373;0.456081875161363;0.453378751136562;0.450857516157037;0.449093698287407;0.448070103483762;0.447729278281437;0.448024043563216;0.448641750327396;0.449257648694;0.4497972160206;0.450108202620697;0.45021215924808;0.450704239789351;0.451701627395975;0.453367032399542;0.45590850438088;0.459614583672888;0.464334293022234;0.470469425521927;0.477941586103813;0.485954167314209;0.494549241214557;0.502961930151548;0.510737089010453;0.519342677776569;0.527819482253365;0.535447563409518;0.545653569289687;0.560293815635842;0.58022576838708;0.607244500054233;0.641670467284106;0.681807439897286;0.725448230298666;0.767774620392991;0.805656634516918;0.836574430047392;0.859763554483328;0.876547244084798;0.888446821458344;0.895789873871767;0.89917368491382;0.899534334127818;0.896964667928086;0.892424087892958;0.886586475945534;0.879617595405368;0.872328396040927;0.86494657879938;0.858191023941402;0.852318730084777;0.847845940655423;0.844438066682796;0.842011946671892;0.840394010723542;0.838972378380809;0.837558073426878;0.835885179015659;0.832916124343869;0.828497916663971;0.822718091444759;0.815416446568463;0.806542291931333;0.797004666387373;0.78697073368555;0.776791260793171;0.767575960301229;0.759049090321836;0.750883615782057;0.743721339383742;0.737522331311337;0.732521791334666;0.729355862226804;0.728182779667184;0.729014122594286
0.516871486079683;0.481686671536684;0.449152576482273;0.416784217442174;0.388929792571357;0.367355566207572;0.353715206359877;0.345776949695615;0.341269987456639;0.339333793187588;0.339387017195804;0.34016886155545;0.341509235083463;0.342953713206001;0.344616911094;0.345724958593352;0.346709995700779;0.348154284515029;0.349634574797195;0.350888772875649;0.351887656276679;0.353334991421559;0.354383520644474;0.35557175100007;0.356607931563584;0.35775693736212;0.359010030727813;0.360092369655948;0.361547285221843;0.363060191154644;0.364468503523383;0.365880691638276;0.367904770764052;0.369829930335363;0.372030034039638;0.375298357652;0.379895711132087;0.386218201557695;0.394253232748546;0.402854390638964;0.411655113698507;0.420378837034529;0.428284997294794;0.435865472861719;0.44316328380558;0.449994234021757;0.4551133999779;0.458462440340299;0.459502847321866;0.458911736326964;0.456688286246844;0.453904692757972;0.451398339292236;0.449610559687648;0.448545854290644;0.448169672967446;0.448450345318275;0.449034828073697;0.449664615720278;0.450180565556111;0.450520256978904;0.450590237257353;0.451080047080867;0.452088876215466;0.453700461416674;0.45623755829413;0.459927423157295;0.464706513040026;0.470814582856285;0.478265955343944;0.486268478144724;0.494935667567671;0.503398548041655;0.511226412262139;0.519887803718481;0.528443538053752;0.536125218930754;0.546403127970387;0.56116837613385;0.581340646259602;0.608722535477179;0.643725881515563;0.684624856836881;0.729271100621023;0.772766513006666;0.811718520477333;0.843736838202941;0.867804370426576;0.885297963567083;0.897535078380635;0.905288556038401;0.908973175203008;0.909429480371025;0.906762228453677;0.902208395998131;0.896073873126806;0.888822874609564;0.881315735796689;0.873749072634313;0.866700019305965;0.860578107489144;0.855896455194779;0.852429403013638;0.849824644937262;0.847985775810289;0.846544605922923;0.845114586949238;0.843320640415888;0.840252088842797;0.835680758719466;0.829713049307518;0.822134945700193;0.813036887560438;0.803234558543703;0.792931957681075;0.782547641987926;0.773101732609782;0.764351886101377;0.755995914758515;0.74867283116724;0.742345659918959;0.737135222347253;0.733649041624911;0.732125752551226;0.732762076077762
0.539034088045171;0.502927224307583;0.468805894680545;0.436217386361068;0.406934903266015;0.385355106449457;0.371373448152992;0.363464765119205;0.359236810245041;0.35697541319924;0.357318584543071;0.358298588886406;0.359847538956353;0.361463921635572;0.362641178966931;0.363970611529633;0.365272402510799;0.366541644409528;0.368004378347227;0.369254504389828;0.370628428816075;0.371798623471344;0.372856161501462;0.374162802098327;0.375115364797916;0.376005397026166;0.377298576283929;0.378863201336216;0.380037801760876;0.38150454883108;0.383011303162616;0.384558780961519;0.386519712293594;0.388464466723423;0.390584040300029;0.393959108991036;0.398701668682382;0.405325857313185;0.413553582605848;0.422617361964848;0.431665660300429;0.440665153518258;0.448960335714683;0.456623033428493;0.464112960118419;0.471175307943987;0.476512106385228;0.479927636734567;0.481153886106788;0.480410605703099;0.478048768298255;0.475170319234036;0.472426548192663;0.470544235529042;0.469465550082637;0.468965056588252;0.469134126122031;0.469685273832472;0.470272773886665;0.470622780655083;0.471158472580514;0.471328526894005;0.471737804173559;0.472694717007075;0.474306698814047;0.476979176807863;0.4806218848314;0.485651510698063;0.49205404177434;0.499736211051677;0.508165882698616;0.517093274129619;0.525886783785344;0.534141469991537;0.542976190224779;0.551915428788982;0.560069654602727;0.570758679732736;0.586267498551524;0.607546988293251;0.636328614189951;0.673308245401348;0.716723879671981;0.764230737931103;0.810755678363232;0.852444862371419;0.886456716903181;0.912290615761892;0.930685697518897;0.94365399553465;0.951598209322879;0.954790891720655;0.954773280927694;0.951424976269631;0.945602614322412;0.938454413934743;0.930280856140932;0.921605176652115;0.913254814992965;0.905478911150129;0.898862878241236;0.893831889340849;0.889962093099233;0.88723049367589;0.885376674241319;0.883696833767967;0.882005593048783;0.880022975700022;0.876605425013302;0.871675058870553;0.8652779748337;0.856887104014346;0.847211587451355;0.83662361896655;0.82547008232058;0.814168978175163;0.80398971340805;0.794661361260963;0.785852640567607;0.777914103496549;0.770701437450452;0.765107805850152;0.761793764616636;0.760063439074781;0.760332215142469
0.536422922147497;0.500857501131442;0.467501943113952;0.435291100094144;0.405973825981827;0.38488674458194;0.370999911358851;0.363110491778294;0.358884280702722;0.35674240502545;0.357251055618315;0.358310679512095;0.359787670452238;0.361359415290239;0.362592834313809;0.364026038573135;0.365320643515873;0.366538311387153;0.367965262167214;0.369263651541886;0.370724991871634;0.371791671813766;0.372852882143604;0.374181304532581;0.37519417828032;0.376139405235235;0.377446344402118;0.378983543063722;0.380177541767351;0.381621023715218;0.383207309668115;0.384743269518995;0.386686944341017;0.388608645293161;0.390783068112525;0.394107383595114;0.398980194335111;0.405516069534957;0.413752275321789;0.422797021585358;0.431780317640591;0.440771786802891;0.448976942740426;0.456525731722457;0.463945075309259;0.470971785161681;0.476262765295009;0.479619190379227;0.480856394993236;0.480208483244325;0.477913130476571;0.47504219021268;0.472367650591007;0.470517415365435;0.469476303203421;0.469024645448484;0.469193866117818;0.469771477898459;0.470359351208231;0.470734077239518;0.471298572965962;0.471513309885851;0.471940012670428;0.472914274548113;0.474519690869207;0.477188662454229;0.480826827912937;0.485821621089556;0.492127808849203;0.499723721246336;0.508079406730967;0.516863776233701;0.525515226754468;0.533642270807393;0.542325464065192;0.551132356524309;0.559156539123665;0.569729136626882;0.58491191322225;0.605671445101843;0.633829473904693;0.669996564903158;0.712231403077607;0.758568831927048;0.803751116112726;0.844181343922706;0.877259024916451;0.902342948478297;0.920105649127896;0.932543771641077;0.940117131574642;0.943396592672372;0.943477801101741;0.940211352615949;0.934719502580492;0.927791290607103;0.920024360118085;0.911791948462061;0.903690423124998;0.8961716583225;0.88980638524362;0.885092915885706;0.881484295788098;0.878866781413925;0.877097987083552;0.875560989443474;0.874063208060605;0.872117732994576;0.868946542708033;0.864200034373729;0.857986167015641;0.849859682293284;0.840471606275224;0.830224496984097;0.81937385570127;0.808449226639507;0.798616259803779;0.78965151140991;0.78113535395211;0.773353961508723;0.766324280915546;0.760931622008225;0.757715795909532;0.755996409992534;0.756226507269344
0.542827929805491;0.505984625242856;0.471738190223565;0.438345601066111;0.408998982795169;0.387324518570814;0.373317260192465;0.365171103770627;0.360804565620126;0.35868704462826;0.358929336115449;0.360009284849329;0.361546586298916;0.363154083684034;0.364331616752979;0.365659387838443;0.366964741898805;0.368172536974052;0.36964342835304;0.370894717523439;0.37220426129856;0.373289869744345;0.374328632591913;0.375615171113279;0.376644113729976;0.377536873324764;0.378713496221376;0.380259572690738;0.381427508555561;0.382867082927075;0.38440983626028;0.385910141073875;0.387874969627955;0.389813028520206;0.39189177463703;0.395305550474426;0.400159704765836;0.406764788295542;0.415099815564215;0.424358923530535;0.433576061304183;0.442782103279366;0.451260216258162;0.45903444319954;0.46664362994608;0.473861759585652;0.479310701040666;0.482734673284615;0.484025671111763;0.483190518787281;0.480757320350737;0.477735912162957;0.474899451278673;0.472901629562516;0.471742951535185;0.47126116559647;0.471353982928828;0.471885300253839;0.472454002101663;0.472820994181966;0.473290695945504;0.473434457265006;0.473889175052106;0.474813778592288;0.476431968650795;0.479144953977548;0.482877370673148;0.487991045855881;0.494530796869488;0.502369545907055;0.511007599439595;0.520150409440254;0.52918554139938;0.537633601918114;0.54672555038067;0.55584414512622;0.564240654526759;0.575190534087419;0.591137709282841;0.612789446125685;0.642201558124386;0.68004388922986;0.724435975712443;0.77326815117313;0.821153935996042;0.864317272624399;0.899813896858262;0.926822196938532;0.946076082282907;0.959917304575827;0.968322558478829;0.971951597876883;0.972226091996743;0.968963370159155;0.96297929872474;0.955635090088819;0.947263746236329;0.938430292305477;0.929726384726344;0.921638171594751;0.914750462217989;0.909577926920998;0.905647680949987;0.902820113410015;0.900960225992782;0.899239454369531;0.897577957992177;0.895602693136058;0.892110958528651;0.887025871028195;0.880408619147144;0.871756187409593;0.861649295206218;0.850688494092085;0.839128575316348;0.827543317562188;0.817127040701043;0.807585886930529;0.798506740623898;0.790317733866282;0.782893661282714;0.777191478580398;0.773944528276859;0.772409436119818;0.772843214785973
0.506409937971006;0.473508746135822;0.442369745375092;0.411722913543214;0.384895910899346;0.364311419054406;0.351245594537594;0.34336257231893;0.339170082497965;0.337257274476166;0.33729003776135;0.337985447567512;0.33934204675084;0.340781131274164;0.342418528986805;0.343504691220462;0.344511964364283;0.3459650361606;0.34747237757837;0.348859663662706;0.349873519210892;0.351464940189342;0.352556780596078;0.353812886819711;0.354998866347498;0.356172708731115;0.357484139094219;0.358678712681696;0.360142526741782;0.361742228775212;0.363189361256864;0.364618103161754;0.366566895409989;0.368535328531142;0.370724583957184;0.373905597129557;0.378233873278462;0.384270306160529;0.39197401375142;0.400102851775493;0.408519894025855;0.416778548060463;0.424206182805662;0.431335470795138;0.438146649709878;0.444670926427491;0.449519340103537;0.45278494760912;0.453881968198929;0.453475226861907;0.451447705911496;0.448889030409827;0.446528777801306;0.444929988734644;0.444019116844556;0.443752995962211;0.444105928037328;0.444710948838033;0.445370701181783;0.445939409905311;0.446337694704073;0.446519306646043;0.447085874965692;0.448161750446799;0.449800886346405;0.452284721973876;0.45586172970591;0.460454338889812;0.466254116969103;0.473329311787014;0.480849035887317;0.488896529967759;0.496707066660474;0.503961985208643;0.512053344528581;0.520149546291715;0.527380440818481;0.537077272174415;0.550969857351145;0.56971591391031;0.595052253304447;0.627204315195463;0.664336134101314;0.704267349951837;0.742808539923146;0.777027968445177;0.804863661235797;0.825682833436096;0.84070838846665;0.851358482511799;0.858060079778608;0.861198544496607;0.861648347760391;0.859304389797618;0.855221301849352;0.849994940709409;0.843693503530371;0.837237010391272;0.830754195086431;0.824847831608661;0.819613740960714;0.815674325308348;0.812765048688411;0.810628733553055;0.809223587897668;0.808040091690655;0.806778809705064;0.805348037711804;0.802815962484158;0.798921475133694;0.7937779701262;0.787295280341693;0.779292162690424;0.770831578567455;0.761805810130617;0.75263345196577;0.744410093389232;0.736820476342427;0.729466496350186;0.723075654350584;0.717523582581287;0.713014121580759;0.710097924354463;0.708905001257778;0.70962254271671
0.505706787944421;0.472215868210828;0.441180590545322;0.410357527768769;0.383550429023408;0.363122516694579;0.350059012817057;0.342141062690912;0.337868097629622;0.336097235820502;0.33612040060352;0.336699639226132;0.337961710251495;0.33944271489794;0.34102010967342;0.342197878703008;0.343269032898048;0.344623921248467;0.346127185257978;0.347562572779104;0.348660239144922;0.350181065709232;0.351329262468094;0.352544946896345;0.353741193493833;0.354900033838147;0.356265222444735;0.357419848171163;0.358934695440358;0.360547080203187;0.361944855068566;0.363387550204941;0.365413212766925;0.367350911468063;0.369469411729408;0.372689765342492;0.377002156161217;0.382994833411666;0.390612863787547;0.398766823326849;0.407179054317506;0.41531458556776;0.422771039333944;0.429842024937485;0.436686969244041;0.443150271182681;0.448011006324613;0.451266231368735;0.452362125078356;0.451923853705082;0.449888861103151;0.447329715823769;0.444989273079091;0.443384437518897;0.442469339607697;0.442152112845126;0.442575213592487;0.44312689763553;0.443758304716662;0.444355229356742;0.444711795273248;0.444935674841292;0.445487460197331;0.446508500067325;0.448144930805166;0.450650299377625;0.454134228053529;0.458689277965963;0.464512706196666;0.471536204275534;0.479028602246472;0.487065849577612;0.494856536146181;0.50205371694483;0.510151302731186;0.518219670453226;0.525401783083216;0.535048831617342;0.548884092336831;0.567660973362737;0.593038673027159;0.625102883221195;0.662128604160603;0.701938103427068;0.74038701066623;0.774405676827484;0.80223137620692;0.823085809244074;0.838067183350914;0.848508797185042;0.855105248837167;0.858255570758086;0.858615140445384;0.856171738012027;0.852021783764833;0.846763665823797;0.840467094526328;0.833977728245885;0.827438807429436;0.821443745493996;0.816223537710709;0.812297139288055;0.809331084037856;0.807152491951038;0.805708551387994;0.804475053604108;0.803192874007408;0.801712220333037;0.799078128139556;0.795206298000346;0.790026537478793;0.783477568204998;0.775549557023;0.767015318560383;0.757978396270646;0.748791663980704;0.740430488154692;0.732690727668256;0.725301236682157;0.718902061828704;0.713340802025259;0.708763944951294;0.705762444881084;0.704465445856125;0.70512414300092
0.50483364921964;0.471780271731594;0.440971585012964;0.410175792791352;0.383554210305969;0.362866858532364;0.349996492231575;0.342335222720286;0.33808759903008;0.336304632861632;0.336384434582139;0.33699554021145;0.338297179315184;0.339799843282569;0.341407896194053;0.342605070682875;0.343689783654895;0.345074152475054;0.346516088736482;0.347923057205048;0.349077516213117;0.350618014129859;0.351743841733808;0.352968422339152;0.354168586149228;0.35526233289288;0.356660550947789;0.357880084181941;0.359353423394204;0.360940444722908;0.362415116384225;0.363868812889277;0.365834909300583;0.367771557267885;0.369914813728795;0.373108643907243;0.377387417520598;0.383414639779908;0.391018517024961;0.399120612865462;0.407482494022384;0.41564061526266;0.423022649663973;0.430059302239619;0.43685972027446;0.443258842137649;0.448105565639661;0.45132258104207;0.452497890705427;0.451944631777645;0.449998028413236;0.447497626018742;0.445209300836592;0.443619574492054;0.44272047137897;0.442485098759034;0.442851329220985;0.443508983965715;0.444140101875747;0.444697889760929;0.445118395768634;0.445264991102128;0.445890059189667;0.446893088308782;0.448501207635533;0.451027041499511;0.454516850540235;0.459008449440274;0.464854553134457;0.471852347394821;0.479303368079706;0.487292529166917;0.494978428967444;0.502137897144722;0.510206696323754;0.518179713882612;0.525275413476695;0.53487080894822;0.548590321014827;0.567172559084453;0.592213226634695;0.623880753072293;0.660463298261078;0.699808132312371;0.737654530239977;0.771071468309783;0.798353569349658;0.818811204350711;0.833548867641336;0.843854439381567;0.850353887082037;0.85337281262482;0.853762473873291;0.851504081242793;0.84746093822897;0.842295479669241;0.836099819713163;0.829721558720729;0.823328332470541;0.817502890804181;0.812430212299177;0.808547029258061;0.805632482793726;0.803536960210829;0.802150957269793;0.800956892407762;0.799734881065372;0.798274684013574;0.795710675515644;0.791958184715333;0.786910107592939;0.780437739151999;0.772638878330185;0.764291560183987;0.755377560624758;0.746319928635096;0.73817445983891;0.730600547555152;0.723329600750045;0.717004015654536;0.71152228204329;0.707012227385418;0.704120979739364;0.702876848669566;0.703538186130913
0.516760420404688;0.485843554231191;0.4561512676863;0.427021579139418;0.400727223838554;0.381348600867865;0.368888573100655;0.361703872309234;0.357771586440023;0.35560503913066;0.355878433161239;0.356832768514524;0.358205839216367;0.359694403413972;0.361037270813669;0.362575619711853;0.36393105379929;0.365295968428362;0.366939771037586;0.368340760737043;0.369927944656214;0.371286951775205;0.372524252127811;0.374046254885226;0.375204172645664;0.376289774914776;0.37770638094823;0.379370566906464;0.380603604186724;0.382137904870689;0.38372198533497;0.385307646398379;0.387224193691616;0.38914934263495;0.391138533976583;0.39433527423784;0.398578130120721;0.404266524205163;0.411437217287048;0.419281391723208;0.42692105426967;0.434684045551809;0.44174359496817;0.448346809510079;0.454682490286323;0.460752978463409;0.465375564048153;0.468356465458363;0.46954594890804;0.469265897639184;0.467494679420989;0.465339170569013;0.463257904849012;0.461964818512052;0.461239318534003;0.461005998154539;0.461319088101857;0.462024083700434;0.46270098487894;0.463175128805028;0.463832472094949;0.464152665262098;0.46470081532808;0.465617334738956;0.467134196102706;0.469470670583138;0.472620309348753;0.47691666335773;0.482351826542945;0.488748495805931;0.495704793828665;0.503060946925193;0.510134151832984;0.516755424544474;0.52394465280204;0.531201179004112;0.537637495893555;0.545992535112176;0.55805268553182;0.57430734960528;0.596306176697132;0.624359061374542;0.65666566606828;0.691516904222116;0.724765143318671;0.75393691675986;0.777487721259659;0.795091132617574;0.80746348915692;0.816370908460135;0.821799148343732;0.824451948622271;0.824924439652557;0.823329489043977;0.820168822178822;0.816019349720127;0.811152760799325;0.805854062749173;0.800612648227605;0.795780141098565;0.791628523295284;0.788551324482942;0.786226522839232;0.78456046500939;0.783514764492013;0.782615823371138;0.781711382849599;0.780600966042754;0.778538031513268;0.775328409967736;0.771166076655593;0.765549536163098;0.758965561483115;0.751766970742378;0.744063050329482;0.7361235384499;0.729023896150407;0.722562245539004;0.716325031751057;0.710694278393343;0.705609616654203;0.701720177648821;0.699559524733389;0.69863898098019;0.699132026396762
0.524258226402511;0.4915768140739;0.460448069785156;0.429857566180369;0.402846923677996;0.382720394530145;0.369767347092172;0.362145476278645;0.358038820858659;0.355739596450063;0.356155746733965;0.356954863153901;0.35818087153534;0.359629585671471;0.360934861178286;0.36243432562769;0.363746665939173;0.365097510857411;0.366633363061427;0.367957560951025;0.369547817369252;0.370854626094714;0.372044149676901;0.373518484190366;0.374660689475615;0.375732552823831;0.377037749006463;0.378679946914272;0.379950500105209;0.38140524572957;0.382967140461445;0.384536462318088;0.386451293707578;0.388299309873702;0.390348506676953;0.393521789418867;0.397828517875828;0.403715819050906;0.411013388738668;0.419108424108194;0.427166835723338;0.435281989187825;0.442735637793115;0.449648349283307;0.456384974861642;0.462742199722536;0.467636534562292;0.470747814781574;0.471882725721687;0.471483214602898;0.469513941222995;0.467014780345576;0.464666883836205;0.463184970252154;0.462300006062173;0.461949720393653;0.462254552409164;0.462850864328124;0.463478549783893;0.463877332952033;0.464467400022429;0.464746145860327;0.465255616593446;0.466158444811674;0.46764838978514;0.470099799203157;0.473361601915767;0.477867318223418;0.483575296058141;0.490368504462177;0.497853486644458;0.505687585320152;0.513382665941827;0.520596887100826;0.528389874169706;0.536250456349621;0.543252228879074;0.552452054237077;0.565723065525727;0.583737543277488;0.608096402324282;0.63921749936183;0.675347008805729;0.714425139549176;0.752145506109091;0.785356927145561;0.812354648891441;0.832702755529269;0.847017645103317;0.857248668315311;0.863684117506236;0.866634205251915;0.866984476261745;0.86518849526842;0.861258491355231;0.856286516700004;0.850481296708589;0.844237470097753;0.83812043071582;0.832340977445643;0.827354166817293;0.823732163756607;0.820975886860802;0.818938274054947;0.81763699800939;0.816476488523507;0.815385783954034;0.814063108408543;0.811583695321517;0.807844178555376;0.80299913484213;0.796500959276192;0.788877856182244;0.78053021812422;0.771731849159544;0.762657622118133;0.75451496998682;0.747063514859147;0.73998111232326;0.733610000536177;0.727832446583018;0.723458008111487;0.721139667151291;0.720307281886295;0.720995723486997
0.531797163011143;0.497391552129206;0.46504382414199;0.433529391903521;0.405710565364271;0.384993802376292;0.371427887409818;0.363885376131382;0.359623323119902;0.357336679728303;0.357711706503391;0.358587468489962;0.359957650924664;0.361458431182585;0.362712955178749;0.364179202599073;0.365407470683357;0.366685493747562;0.368293095791928;0.369555546836934;0.371027463906557;0.372250208375423;0.373359221195386;0.374840711158797;0.375909304116927;0.376917738286048;0.378190608687005;0.379728886905768;0.381043556344387;0.38252439803267;0.384015248233772;0.38560324874778;0.387536368120144;0.389441716461702;0.391521142351131;0.394721464951557;0.399333068580023;0.405480936963811;0.413253633165725;0.421778325904684;0.430190258755723;0.43871670415684;0.446515178258387;0.453781697931638;0.460778825897333;0.467486523840337;0.472582530097078;0.475797113760797;0.477007701559074;0.476441464720374;0.474296990419463;0.471580967580201;0.469015054414615;0.467374527531143;0.466415905497099;0.466011356633335;0.466221080375736;0.466767014662256;0.467448678853211;0.467777543446272;0.468361955959396;0.468587765053047;0.469051885139686;0.470018913265164;0.471588042662661;0.474065477154088;0.477491735601363;0.482218133981274;0.488200165222345;0.495401790316129;0.503225840585225;0.511496663663819;0.51961501153633;0.527198222647883;0.535444285077643;0.543691826038797;0.551123550353188;0.5608540139624;0.574967202952756;0.59393507845994;0.619719457656789;0.652738891700812;0.691026027573631;0.732615167462822;0.772768829304985;0.80843916819071;0.837469944123891;0.859456762308348;0.875037920690627;0.88623207127377;0.893065623337984;0.89634026982248;0.896824921966154;0.894681628400766;0.890355655885897;0.884899293064147;0.878505157129739;0.871714489972695;0.865007045284483;0.858691669710357;0.853211098942054;0.849181566341726;0.846050449061224;0.843770781665606;0.842321758871841;0.840980230345967;0.839687867062886;0.83813149980791;0.835427375431721;0.831330482727379;0.826040559930932;0.818917379409887;0.810736578100016;0.801695439327677;0.79213360418695;0.782407890449725;0.773584419098376;0.765508278861197;0.757841605435876;0.750965359665332;0.744816293068228;0.740117881561615;0.737513313820069;0.73656136134782;0.737255682518055
0.534844468981824;0.50072005308397;0.468119546244097;0.436700383186251;0.408502872945359;0.387583860336686;0.374219031382411;0.366376236167335;0.361763905672128;0.359334945969544;0.359590222561712;0.360439408087117;0.361747722817231;0.363031436244047;0.364139324533655;0.365629956376533;0.366872751087456;0.368079377767868;0.369663163453301;0.370911346860949;0.372349998836588;0.373556461439888;0.374640108559339;0.376095109811473;0.377142475107452;0.378143302699859;0.379479603098991;0.381000637479239;0.382262927622252;0.383702756730239;0.385208629791281;0.386821432499999;0.388712585548763;0.390551269251172;0.392525996922716;0.395693037396308;0.400121620077971;0.406206039060963;0.413709039253633;0.422157918664804;0.430540176471113;0.439018899170476;0.446768175188727;0.453870853358515;0.460900680880261;0.467500413905338;0.472568089749597;0.475807115537425;0.4770073107964;0.476404912495265;0.474187882990644;0.471562572905204;0.4690061029741;0.467303573257853;0.466296687054381;0.465879045244075;0.466058983361631;0.466601407351862;0.467204868012244;0.467587587391239;0.468148515957551;0.468386089449804;0.468835677171474;0.469802607791439;0.471333669407035;0.473935474910496;0.477448966659464;0.482180301447748;0.488279162378159;0.495489447929955;0.503468037883131;0.511788955619999;0.520058349929154;0.527827242643294;0.536167458267022;0.544643583439156;0.552295566794437;0.562413834487319;0.576990512135918;0.596811164353995;0.623527614665812;0.657673664276086;0.697327572170571;0.740303173513738;0.781765769615295;0.818598646061518;0.848578356251497;0.871145025872949;0.887154795503465;0.898493847637998;0.905551233033674;0.90846809909523;0.908589123056415;0.906040682976374;0.901214070349661;0.895278392015664;0.888385688986831;0.88107854060097;0.873879637016354;0.867087118269827;0.861403028858145;0.857072067329334;0.853719057542998;0.851339052474772;0.849718320794018;0.848273237121427;0.846877205508957;0.845189077678744;0.842309978342999;0.838074362390133;0.832547966221921;0.825253950227832;0.816754648368744;0.807564137197724;0.797831663851835;0.787962959350026;0.779151365224465;0.771050703382433;0.763357452496487;0.756349160034161;0.749908770794335;0.745110325273021;0.742383814454628;0.741139402731101;0.741535607592064
0.544325896371615;0.508354426412814;0.474369355540304;0.441460501302149;0.412074633970337;0.390733409394618;0.376608243020682;0.368508948227042;0.364017402735207;0.361532408390945;0.361969240541647;0.362680519270846;0.363965390506038;0.365418350484997;0.366545987477064;0.36794357751284;0.369202674166944;0.370455342043603;0.371903116201365;0.373077677956752;0.374500184188062;0.375653847873531;0.376700975391398;0.378120274018318;0.379009216124213;0.379933208542117;0.381159803183862;0.382655087475338;0.383888143329937;0.385242898160394;0.386755717503959;0.388375667195917;0.390301671310747;0.392129003990784;0.394121051509501;0.397448556915555;0.402140449366206;0.408569848630178;0.416573932925698;0.425505616026227;0.434428778076098;0.443376842908474;0.451590925418821;0.459096309605391;0.466469551762104;0.473465721641117;0.478758979773874;0.48204125895369;0.483273895712882;0.482545714311711;0.480093420466295;0.477204951330753;0.474392530462524;0.472521806514476;0.47141094299697;0.470917323019239;0.471066467925111;0.471539548500892;0.472110630930414;0.472477461746406;0.473003186933769;0.473191653615416;0.47361445203211;0.474572275197136;0.476175653227265;0.478837716825867;0.482513261755836;0.487518926797163;0.493936115473224;0.501540157293389;0.509986710167354;0.518879843759984;0.527605613631564;0.535809524197454;0.544699141686643;0.553677237195364;0.561848137998765;0.572678486591784;0.588242116110176;0.609478552306655;0.638301621476706;0.675245017770477;0.718283440816504;0.765359228388537;0.811255673651096;0.8523168754715;0.886117787296697;0.911735946228913;0.930039758917456;0.942958405527652;0.950913060980831;0.954345362550929;0.954523675823272;0.951444781931781;0.945798456280662;0.938851482599667;0.930922708508112;0.92250164425198;0.914245042839262;0.906530685151652;0.899913217691737;0.89491034770146;0.891107011621828;0.88829770020675;0.886386502660603;0.884715747696868;0.883107468164015;0.881155829541347;0.877840173915076;0.872928909380673;0.866607690757419;0.858402560225875;0.848818987838071;0.838437058275603;0.82741428914124;0.816353551391684;0.806419075473495;0.797275255706417;0.788675180053031;0.780798072870136;0.773588544733121;0.76821270583997;0.76526461168073;0.763978958820619;0.764477865558122
0.541012288347173;0.505735454311164;0.472254646269553;0.439686788146055;0.410711609924796;0.389682085079209;0.375662821374179;0.367624917721472;0.363318870551866;0.360677697108541;0.360934063534914;0.361770398962438;0.363149573973631;0.364522184562266;0.365601433951856;0.367000027061368;0.368323722453763;0.369546291832675;0.370973176853896;0.372254404230451;0.37364412971803;0.374778945740101;0.375827368420514;0.377119706415423;0.37812712025555;0.379061710303763;0.380224131763118;0.38183052709415;0.383026304816896;0.384392366236322;0.38595745577744;0.387494498710234;0.389345904301882;0.391250993130933;0.393256193276845;0.396496210639064;0.401054181423412;0.407429668068877;0.415343628906609;0.424100426334636;0.432862543987622;0.441795239243015;0.449908685414007;0.45740534550915;0.464656249138148;0.471552411146115;0.476828118037293;0.48009984848343;0.481310666894034;0.480608619413467;0.478269482427875;0.475452128551758;0.472701939226291;0.470880975908332;0.469782879122934;0.469278053336911;0.469418572308392;0.469937401634059;0.470505609885395;0.470808804444085;0.471345368851028;0.471579295304824;0.472040701529661;0.472959309170953;0.474574218089838;0.477192311109473;0.480845093560441;0.48580713253081;0.492142914439301;0.49970546756155;0.507997983938905;0.516782973860402;0.525401491866739;0.533547751886629;0.542288222642659;0.5511603211638;0.559174952605549;0.569748487669502;0.585016629964469;0.605753256448607;0.633812092373067;0.669700091671782;0.71142439352412;0.756830690134223;0.801146700249764;0.840492962522678;0.872813860062872;0.897359830545019;0.91481756278231;0.927263861902575;0.934863394526933;0.938378661445946;0.938601057039173;0.935843126140164;0.93060832662599;0.924138562707767;0.91669880764855;0.90874115442136;0.900951582680102;0.893656769293205;0.887428510135021;0.882765836452175;0.879227391619046;0.876626672800924;0.874876076283513;0.873362157099464;0.871842504127356;0.870016381804008;0.866959219175324;0.862331993255581;0.856338613775843;0.848503281964851;0.839352325594783;0.829451099648124;0.818928542177383;0.808285805704492;0.798806413549232;0.790109295615999;0.781859583085911;0.774254058298799;0.767304698242842;0.762158791611586;0.75925037354308;0.757838621388797;0.758246133546748
0.50911741503242;0.475686979558878;0.444746016821401;0.414300643302081;0.38770144711995;0.367204413860015;0.354111949129588;0.346536247169286;0.342029362122208;0.340161637798036;0.340154319113716;0.34067377662332;0.341871407371748;0.343266639625517;0.344849747158868;0.346051257644475;0.34717475999352;0.348504408568464;0.349971700401418;0.351440844788415;0.35249565958239;0.354120193920926;0.355203585093774;0.356527287207868;0.357725364340636;0.358914747177145;0.36021259713133;0.361398639652298;0.362905317854358;0.364454531457364;0.365862942846421;0.367259749344783;0.369206230945347;0.371112989984417;0.373188427289476;0.376289981502345;0.380463101296547;0.386251175706527;0.393635727508577;0.401509008080751;0.409704775310883;0.417771250135465;0.425125167779285;0.432158185182773;0.438942525265427;0.445296471367913;0.450126812579289;0.453288216689321;0.454376248596797;0.453920748869804;0.451986559791085;0.449444764599363;0.447191299573723;0.445645934463794;0.444731142813682;0.444517400336106;0.444875792986499;0.445459236521155;0.446104963702709;0.446674270986497;0.447029464464119;0.447193488591106;0.447735488213809;0.448702275773694;0.450309893822968;0.452710178782516;0.456159585602499;0.460582248382111;0.466291730919385;0.473200691744173;0.480644607726348;0.488648273471884;0.496386610623533;0.503552769625395;0.511583681774015;0.519507838739894;0.5265477748838;0.535882310565674;0.549391900118474;0.567645727174874;0.592521395597041;0.624096173346891;0.660810804638748;0.70050948068793;0.738937309750424;0.77284141291095;0.800416216443017;0.821091797472653;0.835948875448507;0.84642352969438;0.852979166630384;0.856132445757545;0.856665689065823;0.854672113027517;0.850748855457755;0.845781201117983;0.839737710179208;0.8334890740483;0.827158389169728;0.821271620802211;0.816208746497509;0.812311234074571;0.809395482490182;0.807336109431288;0.806006013088178;0.804870034750549;0.803691694535349;0.802262501230807;0.799754872872275;0.795927792364759;0.790847853326698;0.78441081168155;0.776452663210152;0.768041084574403;0.759103953822351;0.749987156578401;0.741820715607104;0.73426169356198;0.726907246201146;0.720565776051015;0.715053382664197;0.710675093143984;0.707998597358413;0.707414344455029;0.708533910443865
0.51514504581614;0.481411841589154;0.449733968945442;0.41871474358247;0.391681000941105;0.370458297599171;0.357176617887801;0.34930353488597;0.344881070445172;0.342826597432055;0.34279341380975;0.343382010366495;0.344552960662976;0.345939606500259;0.347487843806244;0.348604025151734;0.34967090841596;0.351111642396193;0.352634147685414;0.353932565520734;0.354940449190972;0.35649027675827;0.357610671643981;0.358884677646302;0.360035651359634;0.361085243125101;0.362447032208745;0.363581917331442;0.364903168743992;0.366482865767171;0.367952393106202;0.369317826958441;0.371210988056622;0.373135715288653;0.375200257299879;0.378338576899531;0.382579414857297;0.388444602094707;0.396016874047587;0.40411419020502;0.412528692494471;0.420769681111202;0.428290236729615;0.43557718510005;0.442570400578656;0.449117883799789;0.45405836174082;0.457279861771658;0.458345385046039;0.457722951459646;0.455700724385195;0.453042857166212;0.450612422501681;0.448984513801143;0.447942658608864;0.44760631555602;0.447934131128144;0.448500963677349;0.449148300825902;0.449664738026623;0.449967796601321;0.450100489516349;0.450567930585263;0.451545104778072;0.453157505418819;0.455513869327706;0.459076686376859;0.46364903309376;0.469487440644919;0.476601758484813;0.484241762857592;0.492512760648137;0.500531356462654;0.507980218451241;0.516218918290886;0.524422071540075;0.531668771280385;0.541320158616394;0.555191642398157;0.574053200152854;0.599625916469505;0.632146323617107;0.669998393105663;0.710913853686445;0.750567064615578;0.78575557403791;0.814477393086695;0.836082251509456;0.85169633399338;0.862634493296735;0.869638244540175;0.873054364073535;0.873531877096106;0.871441131538638;0.867570597265166;0.862477521368644;0.856125273745553;0.849578541083403;0.842887297919943;0.836790008238396;0.831437112056836;0.827357960698492;0.824384409033702;0.822203866707785;0.820721739629189;0.819462973225735;0.81822813371067;0.816674627130316;0.814091413305102;0.810075047915895;0.804807412095963;0.798064302207927;0.789861336198189;0.781072651256099;0.771762660657453;0.762261024028291;0.753749658411817;0.745838779152574;0.738150694342602;0.731537168855826;0.725796875586551;0.721161834144905;0.718300467792703;0.717322386157231;0.718231909902739
0.519566306410661;0.485031968704872;0.452483733648976;0.420760297648047;0.393119268442201;0.37170703408506;0.35820009255944;0.350242348222421;0.345761351711399;0.343775267035791;0.343733577410631;0.34427374397106;0.345592986915822;0.347047368576171;0.348701628925132;0.349830365393099;0.35079106599175;0.352111723023978;0.353544808518773;0.354938580758411;0.355946931777422;0.357450508808876;0.358512999668318;0.359684163157845;0.360791109622018;0.361880899676996;0.36322464169551;0.364324683108781;0.365723599696502;0.367294957308537;0.368685625369408;0.370007043989664;0.371950974494947;0.373827222543784;0.375947387807096;0.37907117032571;0.383397104744197;0.389440332357816;0.397274636618261;0.40559010029334;0.414266258415085;0.422884521925061;0.4306893076597;0.438192626775925;0.445418297280948;0.4522383359454;0.457294300514503;0.460599807527504;0.46168822877785;0.461026336494065;0.458766332337015;0.455935057764246;0.45335642413135;0.451503342185467;0.450396379093467;0.449999497218838;0.45028527439529;0.45081520647442;0.451390603241096;0.451920411280176;0.452162062002174;0.452265158031472;0.452773491253684;0.453690215336684;0.455298348127169;0.457801080747842;0.461429030808021;0.466195034064276;0.472261732335504;0.479724559227679;0.487735429007512;0.496389198394385;0.504831982746288;0.512727395931563;0.521418210584059;0.52996368681163;0.537730212774622;0.547997851963973;0.562784233838444;0.582917269982751;0.610153050448741;0.644873124717234;0.685191634092267;0.728955718545775;0.771441044969257;0.809368601975092;0.840311016874503;0.86365270606108;0.880565281580863;0.892441716603918;0.899930808123532;0.903576321579719;0.904182655570536;0.901729824226858;0.897422582405605;0.891741864339765;0.884844321250905;0.877659259529063;0.870496365992839;0.863745677836137;0.857860919867865;0.853427040462355;0.850104407902547;0.847768545803237;0.846158012145362;0.844749615067316;0.843381197537694;0.841754843582721;0.838892652658457;0.834521224085647;0.828768660966255;0.821518891540445;0.812546966694947;0.802924918658606;0.792886128481144;0.782698234464704;0.773547547978189;0.765090358379193;0.756806377673289;0.749673210217126;0.743543005162958;0.738516113717221;0.73534317902402;0.734280065280948;0.735220415470589
0.541313663758129;0.506571507131091;0.473118709889945;0.441198102172938;0.412430792979975;0.391402730855281;0.377396944699484;0.369615658313277;0.365179762580342;0.362856142609234;0.363121915440857;0.363678130150846;0.364813826722652;0.366199284774737;0.367197636506506;0.368444627587096;0.369805303007402;0.371130444272462;0.372522716100086;0.373741879154693;0.37510187006715;0.376232037541095;0.377356144989331;0.378704667205074;0.37974544150227;0.380700219776447;0.382013232091801;0.38362816200496;0.384937003665379;0.386458378284988;0.388074351536173;0.389705522013133;0.391770264869169;0.393592191030487;0.395714640599273;0.39902851931011;0.403631106355879;0.410018358078267;0.418002809508483;0.426847590646559;0.435506622841284;0.44404277992777;0.451841611800143;0.45890811312758;0.465755531741199;0.472169751306435;0.476958598470355;0.480009864900254;0.481124693251439;0.480339852141723;0.478238654070673;0.475749705875282;0.473366768559169;0.471839475863349;0.470992724076506;0.470650505856229;0.470918478984338;0.471510094478338;0.472165758173579;0.472654867992788;0.47338691905576;0.47382749268612;0.474584191742541;0.475804777439142;0.477676551063077;0.480605992646096;0.484533763398824;0.489729593596741;0.496231781031476;0.503816762355243;0.512035694766969;0.520459095026421;0.528608530045464;0.536277926834541;0.54468650726902;0.553585869390737;0.561949497181907;0.573435227743221;0.589990163718722;0.612251850585519;0.641776290871734;0.678371126496362;0.719919259195383;0.763941633261446;0.806060194713197;0.843306107963029;0.87373348548026;0.897035928276903;0.913529829827307;0.925316280724427;0.932337091128393;0.934794245693251;0.93447443542275;0.930618321133515;0.924454133468888;0.917066061779661;0.908949932330472;0.900392898284082;0.892167874350216;0.884515967969702;0.877880496629297;0.872730589853062;0.868645713485296;0.865485345324629;0.863075964413582;0.86087686589042;0.858839434434857;0.856484955759215;0.853090627315408;0.848298961784585;0.842480071847225;0.835028269547205;0.826398290132249;0.816995655459714;0.807171435231429;0.797238223468399;0.788258109126097;0.779996312156905;0.772240004507566;0.765048386175538;0.758363133799947;0.753420427389116;0.750774240103282;0.749508759720176;0.749746671878755
0.541076290481492;0.506110657156393;0.472907306857446;0.440674258259539;0.411786240312978;0.390956651249812;0.377023987473318;0.369136116972594;0.36483917867178;0.36233908813227;0.362424320707364;0.363007191422545;0.364167349290387;0.365526861198538;0.366559521966092;0.367849656955338;0.369150951738634;0.370403877834958;0.371841358163883;0.373120436157619;0.374563556112139;0.37565364158834;0.376751536830472;0.378203265987166;0.379189178025637;0.380140961179602;0.381551072304624;0.383149274969341;0.384386893843243;0.385974249512145;0.387533294026165;0.38936208442767;0.391267351308357;0.393145898283326;0.395251811133653;0.398572476027586;0.40301221512363;0.40940680256333;0.41716707190956;0.42592715780388;0.434437634915732;0.442900817483486;0.450614383682771;0.457564368553427;0.464304438118184;0.47066501094908;0.475458618028629;0.478474363712574;0.479622466388696;0.478927196185786;0.476867049711764;0.474396932542818;0.472050874720481;0.470519853493686;0.469752134932613;0.469387853896031;0.469660939971687;0.470265463703047;0.470991567913772;0.471425344919747;0.472148884372376;0.472615409465107;0.473325049669381;0.474558286626258;0.476475938498862;0.47937146462362;0.483263588347867;0.488394007898292;0.494834278790463;0.502381007307337;0.510470264135821;0.518800673212735;0.526932783086165;0.534513346728645;0.542881134010643;0.551745055357905;0.560147884859719;0.571575232976563;0.588139815351314;0.610581389215437;0.640221415860762;0.67718778121248;0.719150394106304;0.763937850444619;0.806740958204293;0.844718936154828;0.875927675961331;0.899805621147339;0.916747924242689;0.928897477494997;0.936177443893767;0.93874963550761;0.938419362633283;0.934415804182217;0.928009064688813;0.920420109869232;0.91205788039014;0.903277990330569;0.894794779974338;0.88689598065604;0.880128087270458;0.874819428709988;0.87059081459203;0.867319991324611;0.86487880269467;0.862646838253808;0.860504394941854;0.858098920339813;0.854629537924865;0.849666090143139;0.843753809602655;0.83602806254447;0.827152555124668;0.817703496299615;0.80760317595672;0.797411430792068;0.788265577123973;0.779837236156803;0.77195374075048;0.76462964485489;0.757754827772051;0.752642297512615;0.749929281595452;0.748561333220377;0.748694988098646
0.544598381013285;0.508203388956986;0.474656993391957;0.44149722823005;0.412335047945017;0.390769398049589;0.376644837377078;0.368784803082155;0.364411110351619;0.361802467250544;0.361951351064898;0.362663000883689;0.363818625103636;0.365141403351315;0.366199385696225;0.367461829264912;0.368733637953794;0.370021399467258;0.371406437732234;0.372580986557695;0.373978643061045;0.375081680260598;0.376236168761882;0.377628768085434;0.378600706055211;0.379540479675109;0.380880883903893;0.382516853411578;0.383723351333814;0.385269998446936;0.386955962318889;0.388558172036274;0.390592260136672;0.392496295638573;0.394647324172778;0.397987457936149;0.402648437433696;0.409173874974553;0.417139949034548;0.426114795589552;0.434918537138437;0.443667944086157;0.451541665353991;0.458736233297536;0.465738905165064;0.472285439287487;0.477247956900445;0.480318720196637;0.481428684398938;0.480669827591354;0.478463777553862;0.475798932248506;0.473312651019548;0.471683245890756;0.470860042380469;0.470465961219733;0.470641649002355;0.471229930983201;0.47194194382283;0.472403091297925;0.473095344667856;0.47354285867445;0.474279256978962;0.475486004689117;0.477394338070079;0.480375293115655;0.484332362706834;0.489608896710985;0.496236818592675;0.503973627310741;0.51226915320936;0.520892920718863;0.529286755187746;0.537186326686216;0.545850415024934;0.555002364459312;0.563701517981576;0.575606811063322;0.59287468277996;0.616172251419547;0.647094260269542;0.685687750468106;0.729627024163927;0.77662400629387;0.821813843052493;0.862118534809384;0.895345963222991;0.920918653172064;0.939143954215178;0.952021094869027;0.959803269859898;0.962622113887054;0.9619842177828;0.957867670356603;0.950952238626561;0.942692660430898;0.933640898043499;0.924180868712736;0.914966077488347;0.906410933579057;0.899072467621092;0.893404244731523;0.88874051162263;0.885085582639919;0.882348945637186;0.879904714412309;0.87755081257963;0.874937615641491;0.871106614742137;0.865880610870267;0.859475301993523;0.851305129097124;0.841948260247044;0.831861827198489;0.821170622854581;0.810428000580313;0.800763598924435;0.791875342483474;0.783603679164525;0.775926595234894;0.768737411428906;0.763397246602048;0.760550608770186;0.759102457453127;0.759256361089871
0.534856671479508;0.500942688470842;0.468723204652166;0.437412629083415;0.409386179530616;0.388937555772621;0.375385759823255;0.3675158815954;0.363207301803591;0.360671519070063;0.360876836446127;0.361601005806701;0.36293496590639;0.364326994311214;0.365360025845532;0.366750969055277;0.368174463218555;0.369483851134053;0.370948994768913;0.372276714579465;0.373820238339167;0.375018541668079;0.37614983441864;0.377700474007755;0.378742996824691;0.379742317945196;0.381096401454451;0.38265781277404;0.383914107975;0.385363649809482;0.386894143285392;0.388466166412997;0.39038318303807;0.392171965464286;0.394138271541552;0.397240272830494;0.401522473043717;0.407393603619324;0.414714828623258;0.422930061270987;0.431110757104111;0.43938221708206;0.447087577120567;0.45420380441637;0.461087231662159;0.467690841785615;0.472701810257038;0.475834524183719;0.477008873849203;0.476450700822849;0.474303333212681;0.471730984013375;0.469182736202371;0.467596509641483;0.466631166223177;0.46620748527682;0.466469551762104;0.466998487350931;0.467637426879631;0.467983401712237;0.468530535352275;0.46873764551623;0.469197704085834;0.470059546631469;0.471605409262833;0.47405098741497;0.477453269441723;0.482086722927945;0.488030323219209;0.495129145562869;0.502975066553084;0.511205554773765;0.519371971312906;0.526991674446452;0.535206969793746;0.543536337512495;0.550943912542143;0.560737430649017;0.574826374018212;0.594025110756359;0.620085084387298;0.653517930162565;0.692445560893696;0.734842663125756;0.775846495821484;0.812145508319678;0.841585938496897;0.863815816474697;0.879490559732576;0.890611815002197;0.897405436188245;0.900511347053373;0.900714477276508;0.898335738513568;0.89379209858702;0.888174478714606;0.88157587442282;0.874404564016903;0.867559071980879;0.861179931103022;0.855620412372087;0.851451326911116;0.848238633728036;0.846006273642503;0.844568003167624;0.843200762220337;0.841911742860969;0.84034288944788;0.837563451387015;0.833394368371952;0.827967746943569;0.820739559586133;0.812371846869643;0.803298059235377;0.793589464877108;0.783762821186319;0.77493456034481;0.766762935724056;0.759072032397089;0.752012993465163;0.745468840646095;0.740481615605117;0.737524704366475;0.735744527416591;0.735747836125255
0.533480844333001;0.500257397205694;0.467872807725919;0.437171083074836;0.409385845111127;0.388803473948097;0.375365659889204;0.367517501244692;0.363193570704076;0.360763401546494;0.360983719627874;0.361706469254701;0.362955901054168;0.364435132139816;0.365551247095327;0.366923495257226;0.368336095426355;0.36967852489945;0.371144428623427;0.372439164377221;0.374021798329466;0.375267647386024;0.37641312517973;0.377855220910072;0.378985206050011;0.379969042425767;0.38131516087544;0.382867921888129;0.384133134744678;0.385616335015121;0.387137024151512;0.388682187358369;0.390530561785184;0.392387372573897;0.394311155446271;0.397449966778595;0.401733588177689;0.407629352856755;0.414903779567097;0.423059345432849;0.431142399885721;0.439416021220051;0.447072865859483;0.45411606341367;0.460960679724948;0.467455177252841;0.472275904814272;0.475458358447692;0.476637025848323;0.476052685933347;0.473969620985191;0.471514981907165;0.469053036150175;0.467442945051934;0.466525874758392;0.466176484960687;0.466413617415135;0.466995432482483;0.467589626746563;0.467990673583882;0.468561448673675;0.468790429042442;0.469248624338193;0.470131593680375;0.471650694331059;0.47409018844943;0.477420804046437;0.482002651257538;0.487826894240211;0.494793024269718;0.502530447458199;0.510660374142015;0.518634347341064;0.52609061945306;0.534200306973208;0.542375427086943;0.549628782776299;0.559115465707942;0.572909090380918;0.591577194489893;0.61700086922331;0.649613184718345;0.687539767030069;0.728882899001426;0.768764441121266;0.80406300540319;0.832815337366641;0.854484441009666;0.869739906966057;0.880691312170919;0.887321616940359;0.890389396799479;0.890751264161594;0.888698159596505;0.8843931490609;0.879045569832745;0.8728297382966;0.866031161367381;0.859435709727203;0.8532194619663;0.847831255986922;0.843864139869489;0.840777612220625;0.838546045914941;0.837174020293629;0.835896191282352;0.834599854528916;0.833121317323778;0.830456638045035;0.826404987648656;0.821152497503773;0.814175772838272;0.806096041657384;0.797185403534368;0.787717021146276;0.778111818234879;0.76952170087101;0.761575497560764;0.754074948279398;0.74719501095511;0.740796397019966;0.735877841060041;0.732971964675598;0.731151848098937;0.731070943761538
0.541189977904019;0.506287581318899;0.473387564920474;0.441079612606073;0.412361984625155;0.391293760908185;0.377382654009529;0.369353100514905;0.36493778365584;0.362430423681347;0.362513172464921;0.363334209736757;0.364661142709887;0.366025835397371;0.367176091294169;0.368535632928618;0.369756764801011;0.371008789211126;0.372508994493453;0.373790248619501;0.375277025122833;0.376429243882768;0.377532108174132;0.378912768112566;0.379915396868668;0.380797065607286;0.382208369717536;0.383764963819104;0.384903813052392;0.386339436147296;0.38788059223797;0.389404773047369;0.391246182019537;0.393030800371436;0.395050186028284;0.398197730327674;0.402677633812081;0.408735663446096;0.416305755383338;0.424826477786107;0.433278335317628;0.44182322579946;0.449795747898962;0.457184777214427;0.464361872680949;0.471166440381118;0.47631348036637;0.4795717565315;0.480694786191252;0.479973929145476;0.477665723429731;0.474939895695593;0.472288660440607;0.47047224830711;0.469482575980167;0.468983469440421;0.469129393325924;0.469690525002341;0.470314457109263;0.470644857986516;0.471157444487858;0.471297287435887;0.47174372364469;0.472592071304377;0.474141426819328;0.476706137363362;0.480171743810776;0.48500078924752;0.491146936204966;0.498533075964286;0.506704822545407;0.515349876144094;0.523896910760007;0.531876078488607;0.540474831418726;0.549158683873017;0.556943801588368;0.567218409769488;0.582111484537654;0.602321862977701;0.629796781878176;0.665119201575607;0.706464866864659;0.751552458504058;0.795518075183469;0.834707289693341;0.866731332405807;0.890953257828089;0.908161116923632;0.920412155181703;0.927981469025254;0.931344834204046;0.931614111909578;0.929117651581082;0.924103553957916;0.917850744513831;0.910745758509073;0.902971180273713;0.895434709060988;0.888330945780225;0.882218790675637;0.877633046304312;0.874176963570179;0.871687340305367;0.87003376794295;0.868518317180318;0.867120058385827;0.865432139457621;0.862259563741493;0.857692206444838;0.851835562062233;0.843968737017675;0.834852458411645;0.824862629836789;0.814357569543214;0.803719055088961;0.794099536046549;0.785291757739877;0.776958579729959;0.769301814042397;0.762245951397907;0.756870883105462;0.753682412947974;0.751898917745162;0.751963679638416
0.530705935786037;0.496938972475839;0.465148376626897;0.434167523522106;0.40622850360564;0.385825452177083;0.372468446607378;0.3650051095105;0.361013735401015;0.35861047608732;0.358982932340873;0.359808852218729;0.361084744425169;0.362584226927537;0.36376091631922;0.365226281466626;0.366599521876537;0.367901325946092;0.369430468404753;0.370745796016662;0.372349179949756;0.373528234788915;0.374683638347329;0.376229868665914;0.377209132140939;0.378171934655463;0.379611044743518;0.381230840827227;0.382454091435973;0.384034911288933;0.385612746805807;0.387256290894101;0.389193180842542;0.391073979330247;0.393237074903087;0.396524238780477;0.401101425336434;0.407259026438758;0.414928956657679;0.423332417906245;0.431642192724406;0.439961910115589;0.447639792057025;0.454631393768461;0.461376003536772;0.467742478190116;0.472627659277879;0.475721523365936;0.476834888512595;0.476324274338217;0.47434462835574;0.471984817617662;0.469712939246172;0.46828011638233;0.467492767943032;0.467138652550056;0.467465498440347;0.468101935644673;0.468768701390389;0.469264874017012;0.469926124499915;0.470257127678906;0.470843861326432;0.471899846647224;0.473471793909062;0.476099087048037;0.479546076278444;0.484258848225185;0.490205197487034;0.497250965896552;0.504941428075776;0.512963066057579;0.520784711798629;0.528104511310524;0.53604881049894;0.544206063350831;0.551578769741198;0.56133536983867;0.575450251951255;0.59465688466345;0.620499954640729;0.653362479834602;0.691365806150402;0.732393959598476;0.772068840297528;0.807111543859658;0.835603419506571;0.85715645176189;0.872509693359091;0.883327515100521;0.889979285050699;0.892986525191638;0.893240505132736;0.890751601865236;0.886295241112955;0.88055934386886;0.873955980149858;0.866967211765326;0.860087556028363;0.853555354995619;0.847976900906625;0.843753809602655;0.840432205250893;0.837944858797487;0.836240688801631;0.834731035857239;0.833310334378591;0.831656049328213;0.828800283199578;0.824617508518488;0.819332884969682;0.812398631962478;0.804271886290943;0.795478751813719;0.786163877103534;0.776707365780062;0.768211687116061;0.760403750100478;0.752981758606905;0.74625793983777;0.740127669493616;0.735503295948719;0.732895651156728;0.731804309942507;0.73233791314346
0.543700786546741;0.507751290542935;0.473940519047981;0.440950246447023;0.411698706102761;0.390378915028824;0.376386571954263;0.36829593525914;0.364072434037189;0.361752417780939;0.362264773376426;0.363361280208269;0.364717563157222;0.366188789067999;0.367387745988803;0.368765412413456;0.370043595394998;0.371308497667834;0.372798161513467;0.373966313771956;0.375288979454551;0.376496204899776;0.377582455668529;0.378849277934636;0.379810833121564;0.380725472749976;0.382008940886877;0.383478170838355;0.384702195079052;0.386175085294171;0.387731140431588;0.389321422362933;0.391299962585518;0.39322934186737;0.395406896360943;0.398901405681888;0.403739475546966;0.410495974391785;0.418896897532086;0.428146931860584;0.437328571998445;0.446448400968428;0.454794849535522;0.462481490352347;0.469897932945612;0.476825774435818;0.482068141424248;0.485333529846589;0.486528425258521;0.485741209045782;0.483405930907876;0.480531924346723;0.477844218150766;0.476050346512624;0.474972176154061;0.474534455283928;0.474664636977637;0.475230506235094;0.475862714027177;0.476285131211881;0.476836711350903;0.477096153224035;0.477655678758246;0.478659205645838;0.48034785892368;0.483131332206632;0.486886190063739;0.492053367544421;0.498534034075462;0.506267238338676;0.514719620486611;0.523627390036138;0.532348837029829;0.540560315439842;0.549327430069672;0.55829277025097;0.566511628899061;0.577415248284499;0.593134305880872;0.614541018311476;0.643273332528947;0.679970095467015;0.722632866330917;0.769049630365825;0.814153407473143;0.854647251146693;0.888053305841892;0.91345936959012;0.931716525763942;0.944667164884173;0.952693194644453;0.956123947101215;0.956346586813655;0.953408856655799;0.94784916946468;0.940943870683819;0.932915374767739;0.924532970745599;0.916269184698545;0.908403379189942;0.901691727490524;0.896599642046769;0.892558355335604;0.889584042246339;0.887472079171738;0.88547808528999;0.883658957510666;0.881656889672929;0.878216664920546;0.873329064560126;0.867087757859945;0.858893721578577;0.849440341649328;0.839144168113409;0.828370359475845;0.817479782894204;0.807658951700513;0.798650678017356;0.790150546660832;0.782479997680594;0.77551407268616;0.77017051753837;0.767172052539158;0.765812105424111;0.766316420122626
0.552552483802916;0.515663425165503;0.480698727153936;0.446757969867722;0.416482255813123;0.394692367497469;0.380444329297147;0.372204875258634;0.367795563069759;0.365419861590114;0.365785804536463;0.366620331367573;0.367996575097368;0.369446228337425;0.370585507465899;0.371940441127272;0.373221247331048;0.374552239018899;0.375996209996444;0.377139784199829;0.378558027913613;0.379716809736622;0.38065629144955;0.381919567866426;0.382895084127885;0.383865964234979;0.385042387502073;0.386549642204495;0.387837734934743;0.389325254227494;0.390845550049736;0.392471206605745;0.394452549416049;0.39645249467816;0.398614448550811;0.402107233102409;0.406968269131376;0.413767926938811;0.422199478285973;0.431541296594966;0.440888993804261;0.450247919222698;0.458716251684857;0.466584239699781;0.474271620172905;0.481379868364456;0.486803315844813;0.490223593312219;0.491382084438871;0.490515345145216;0.488004939483136;0.485046033362917;0.482172260811277;0.480297983014133;0.479106341117166;0.478619590036757;0.478718570451697;0.479275739642467;0.479887249653063;0.480271209888551;0.480826696508184;0.480985330989428;0.481557000681127;0.482569065821641;0.484279245590728;0.487149040577731;0.491015755406157;0.496265683583463;0.502961515324287;0.510919147506701;0.519695049224569;0.528890261234393;0.537966363240729;0.5465538371503;0.555723277781321;0.565085075597972;0.573715541857664;0.585203579546804;0.601804874836283;0.62438155501406;0.654882019675639;0.693815885036029;0.739280517586056;0.788991919781896;0.837719142322851;0.881561987611567;0.9179219208836;0.945901586659184;0.965865468190536;0.980232133468253;0.989238003108247;0.993173835225515;0.993448390913352;0.990192721042765;0.984212030132411;0.976522424235807;0.967804862665819;0.958563098018254;0.949403344033249;0.940822203801497;0.933419909681;0.927849402061405;0.923402878727874;0.920137446302456;0.917774548400667;0.915636453349172;0.913669716594288;0.911400792692406;0.907659792670936;0.902287111074554;0.895445632879108;0.886603869279167;0.876259069255129;0.865018821316253;0.853313324728888;0.841532566084916;0.830947775398908;0.821238239964542;0.81208915342564;0.803758026126151;0.796295238437787;0.790711306481131;0.787593704795672;0.786445588502547;0.787161441966447
0.545038734195298;0.508255875166634;0.47380525297555;0.440458910390507;0.410483457628184;0.388804856023788;0.374368120480443;0.366166890188959;0.361672011050017;0.359265116351423;0.359598969611117;0.360567003965361;0.361968440996229;0.363436183972722;0.364628158749088;0.366073756600898;0.367293540841096;0.368470496730829;0.369921124667614;0.371047057892894;0.372389102480075;0.373509760156171;0.374592055916994;0.375960083112654;0.376965117867204;0.377853562245053;0.379154240246287;0.38065190929488;0.38175688083804;0.38324929258446;0.384816265224901;0.386344827486031;0.388310566159584;0.390224228005342;0.392391338781028;0.395772218383718;0.400513102208311;0.407154877019113;0.415346115197072;0.424514141903248;0.433599280020642;0.442705546218636;0.451038942652488;0.458782943903563;0.466303168239334;0.473397769710425;0.478834577533962;0.482174765255855;0.48342417315983;0.482663012264996;0.480232234317895;0.477351318003415;0.474511143279569;0.472561385465761;0.471481542703882;0.470969601406613;0.47111683677454;0.471625606849099;0.472222051855255;0.472555196987924;0.473063977865597;0.473279460542827;0.473653613681284;0.474640670252606;0.47626731640568;0.478983980662623;0.48264810086874;0.487745576024935;0.494232270189597;0.502000319276417;0.510592819974678;0.519685277226168;0.528641682665539;0.537098213303298;0.546126607207471;0.555261668073681;0.563654446918732;0.574707121259491;0.590686483817306;0.612507485836767;0.642157736164772;0.680293841818272;0.724941231762102;0.773955883278297;0.821941794469126;0.864848259175434;0.90011054728415;0.926828802082923;0.945899669514261;0.959341102447727;0.967552895934618;0.971015388385714;0.971065360738476;0.967744780524708;0.961733616221893;0.954244898065544;0.945810723295184;0.936854738418368;0.928239833065938;0.920089751413593;0.913128572850391;0.907888074632989;0.903785066661361;0.900896615237158;0.898872512316569;0.897067793658286;0.895351765281406;0.893238806912656;0.889732932087187;0.884608521150949;0.878004438651388;0.869367475343985;0.859240000992275;0.848275993262454;0.836706805633978;0.825049537134609;0.814661866985536;0.805065442221127;0.796096675750607;0.78785609368091;0.780192621078639;0.774530472496968;0.771433604169216;0.769954904711996;0.770218872474085
0.555857733093831;0.517287878232083;0.481079592832695;0.446032427604548;0.415212101833645;0.392550767417028;0.377730216787385;0.369196780141152;0.364540180253153;0.36201151860236;0.362332086199468;0.363366092913195;0.364935167316119;0.366450349042756;0.367530458656479;0.368913351605659;0.370180155852473;0.371305638435736;0.372681570134769;0.373812946127734;0.375034711689319;0.376020468304824;0.377106045773155;0.378411230518933;0.379262390107052;0.380120431544331;0.381308368691592;0.382761911022128;0.383904121389346;0.385281071035052;0.386864718822898;0.388459155236377;0.39038254283401;0.392244398917258;0.39445298023725;0.39792133441081;0.402866909067444;0.40985540069437;0.418380480846159;0.428044749797483;0.437608984184167;0.447192029244958;0.45606822140828;0.464164805138902;0.47208989562433;0.479588004006474;0.485268740251175;0.488816081997954;0.490053629436596;0.489032964165214;0.486397034689856;0.483166737495334;0.480061806501359;0.477922789517159;0.476679064122508;0.476087648777839;0.476135743534453;0.476582369161901;0.477122079879962;0.477436188951302;0.477856746851246;0.478004900036854;0.478382625575373;0.479329557794551;0.480963378936691;0.483757824251261;0.487610746859982;0.492945479604377;0.499757211204403;0.508013791637352;0.51709484547284;0.526621945670143;0.536199998790365;0.545177388629568;0.554695080467953;0.564359137826762;0.573204994691122;0.584939300809006;0.601864081851583;0.625051594770364;0.656505343663467;0.697054436350467;0.744703126834418;0.797358045070102;0.849173280712427;0.896113531601131;0.934909375251161;0.964675946326183;0.985846288345822;1.00105605394704;1.01025877774704;1.0140683854594;1.01417534325059;1.01046217542252;1.00363821157085;0.995219205144203;0.985749614254709;0.975731944538515;0.965951390613095;0.956815799569488;0.949028954047233;0.943105053738348;0.938486829483952;0.935095590882507;0.932706657594359;0.9306272053333;0.928634300208204;0.9261383744356;0.922265915377512;0.916421779377629;0.909105612878211;0.899510557194071;0.888347401601618;0.876311658332414;0.863639063413779;0.850945704109933;0.839345725411168;0.828743481945609;0.818945429986403;0.809932321034611;0.801697915172938;0.795498548651373;0.792019519664564;0.790202785749105;0.790356324670795
0.554351746867826;0.515843287826876;0.47975601757053;0.444880268718422;0.41424190879744;0.391579664739359;0.376709350192335;0.3682132940745;0.363712848246804;0.361240665920867;0.361586526556269;0.362577821541489;0.364129782466469;0.365693659862349;0.366755819470776;0.368113030365971;0.369477241487838;0.37061313568705;0.37195373571126;0.373140329897004;0.374372234008652;0.375411117990233;0.376417464771697;0.377723169533509;0.378642038277402;0.379429035201206;0.380655039400846;0.382105764970657;0.383263777632263;0.384706091718105;0.386200447283719;0.387891095044114;0.389734393793147;0.391594109320965;0.393855088743432;0.397298703728977;0.402239565133665;0.409180337308711;0.417776250604452;0.427398348091145;0.436952832487648;0.44649490115936;0.455392772659427;0.463605079882394;0.471559357132941;0.479072050539741;0.484813229030522;0.488289054743327;0.489511424934356;0.488585127884094;0.485891279257492;0.482744572144965;0.479593638353447;0.477497603620137;0.476231298920354;0.475625430862648;0.475657372768121;0.476184233640227;0.476750265156699;0.47704664933609;0.477486258855373;0.477666245237195;0.478022002909365;0.478956634215853;0.48062490572579;0.48342549509192;0.487304799908304;0.492649120532383;0.499524756309433;0.50774416033471;0.51679567853787;0.526454495363558;0.535978383382605;0.544984351081559;0.554548682838487;0.564238743770651;0.573136241114397;0.584922767851854;0.60189950574336;0.625129995278007;0.656731269568621;0.6974454867053;0.745453131280247;0.798457042775064;0.850932762961003;0.898407224205818;0.937751290724784;0.967950868680049;0.989632614197939;1.00510166898114;1.01449040263284;1.01864754715224;1.01865897167616;1.01492775282989;1.00820497253758;0.999790720492033;0.990169793404122;0.979984052423422;0.970091327435347;0.960871935120983;0.953094537361575;0.947231438153363;0.94265688482997;0.93928818691827;0.936980933207703;0.935006960232963;0.933046758042159;0.930554656352944;0.926681677948131;0.920932047205709;0.913523423878802;0.903721040835709;0.892465109652089;0.880174555352244;0.867396790037785;0.854515817604831;0.842889112699035;0.832189858230998;0.822228669411796;0.813101555498662;0.804704630764037;0.798408988725207;0.794746631771045;0.792711213230784;0.792749208859471
0.519161216764248;0.484162966953786;0.45125690184508;0.419127803999935;0.390872147653213;0.369608741510001;0.355721863232341;0.347650755970731;0.343159147423421;0.34135337555023;0.341334695225652;0.34193315081863;0.343309816289216;0.344747049530632;0.346220378531359;0.347305860529605;0.348359094614526;0.349730661484344;0.351071484302325;0.352339326724988;0.353398974403276;0.354802206888604;0.355816350224543;0.35702165435687;0.358093396898456;0.359128568820906;0.360425963397966;0.361593516478966;0.362956101395385;0.364533343813476;0.366014133338331;0.367442092731069;0.36948802034725;0.371492140640692;0.373670413118239;0.377063928164268;0.381659193286685;0.38818060567758;0.396428041629136;0.40522404737267;0.41415985162077;0.422899701176468;0.430835796375228;0.438385640618096;0.445480555523389;0.452163784169202;0.45713836260366;0.460386261257874;0.461502802259521;0.460861020922743;0.45870251485941;0.455988665803091;0.453521745195344;0.451761474731965;0.450775353297054;0.450445631943898;0.450747396942912;0.451330929763675;0.452007340864001;0.452608701001538;0.452986037368445;0.453227665351332;0.453883450199144;0.454965423861081;0.456803901025538;0.459526868837076;0.463403305849113;0.468328886317168;0.474600771827923;0.482190055862322;0.490249912781981;0.498871283619421;0.507201908587193;0.514849492347022;0.523463844375454;0.532158902816871;0.540146168682505;0.550834436340766;0.566203133484633;0.586970622273514;0.614817146460931;0.649713982561107;0.689795836318321;0.732735788457885;0.773958464001847;0.810698660948921;0.840773398285432;0.863429401281197;0.879802620541136;0.891412315074686;0.898590460018724;0.901920704554176;0.902235095107966;0.899473688291425;0.89480568770796;0.888838340422412;0.881708152025121;0.874335295826158;0.866890169322658;0.860071192873924;0.854064337335203;0.849379547827555;0.84577298010818;0.84312237493159;0.84120553947524;0.839515261925581;0.837870105250999;0.835991444160356;0.832952484331512;0.828497331453712;0.822839377908814;0.81577405296537;0.807228270030772;0.798058573389683;0.788455253972011;0.778695327738526;0.769863627620553;0.761723505776277;0.753938641883119;0.747026644872613;0.740968105207412;0.736257441734694;0.733485139653436;0.732770056562927;0.733808299768219
0.51659615809634;0.481696414870323;0.449173100218827;0.417487681397495;0.389489949913857;0.368238236873318;0.354691428499921;0.346738172473361;0.342214495210454;0.340218195426852;0.34026572854201;0.340841291935376;0.342034135063189;0.343459675484751;0.345018977420866;0.346062144926074;0.347071318014651;0.34852320605786;0.349931355938714;0.351184755256228;0.352171226601622;0.353624018531852;0.354730546655608;0.355973348518859;0.357060884156251;0.358090623358972;0.359431812178957;0.36061452582804;0.361971439299138;0.363554933412934;0.365013362426022;0.366534776391375;0.36847465622715;0.370484592737654;0.372672965333094;0.375952342028526;0.380412523039201;0.38676746293286;0.394743989875062;0.403290442162641;0.412045920574783;0.420625404165949;0.428367089036652;0.435743572720868;0.442731545216486;0.449292474745099;0.454251513302226;0.457418916855697;0.458447837904277;0.457823886682974;0.455719327497003;0.453153683322745;0.450787370177728;0.449138039422351;0.448191247333231;0.447901484606699;0.448250734751896;0.448860951054154;0.449512126503544;0.450110896117978;0.450547585938322;0.450773146151034;0.451377464549371;0.45251623401274;0.454256828347127;0.456932978394057;0.460725627028979;0.465556181691054;0.471714255772112;0.47913160270193;0.487010264473556;0.495406002913008;0.50354958496355;0.511045492801468;0.519519905132983;0.528002254294417;0.535718707497022;0.546207711901699;0.561237790907942;0.581624453987386;0.608895621657654;0.643281355051478;0.68265823473968;0.724984573374402;0.765701690520573;0.80200558000269;0.831683166334787;0.85409289026992;0.870313651761228;0.881763389847994;0.888945607628072;0.892276983861611;0.892671294187456;0.88995602551414;0.885516787853943;0.879604758507224;0.872680700177818;0.86540952097377;0.858083884871793;0.851453486319375;0.845636290566964;0.841016067162335;0.837561061174288;0.834973914923562;0.833058921304219;0.831379964906449;0.829729481427739;0.827914561001893;0.824908478528987;0.820644432476717;0.81504353174044;0.807988174475556;0.799496145949719;0.790463807415675;0.780883286359857;0.771173769297014;0.762433391627226;0.754280598003416;0.746514912021299;0.73967717581172;0.733666211407576;0.728914072647141;0.726184870351576;0.7254260742303;0.726422367482987
0.513156535608291;0.478808286855069;0.446900501597957;0.415509224341474;0.387925151344422;0.367003970280543;0.353593626843459;0.345587885971098;0.341218914199948;0.339180893467676;0.33917823811685;0.339689597686389;0.340960686026925;0.342372479281691;0.343782455306693;0.344821212266402;0.345830584076656;0.347203063539128;0.348706669636196;0.350036356572862;0.351001801277338;0.352538785676196;0.35362480286164;0.35482255701161;0.355892427683784;0.357057129009494;0.358444293426751;0.359556826357114;0.360982523028755;0.362570815758669;0.364078560215641;0.365547619354562;0.367520538103394;0.369504799292823;0.371651844451552;0.374961899845248;0.37937680869785;0.385560193489846;0.393319461761564;0.401683428088829;0.410238447583324;0.418604053178244;0.426186860777509;0.433350067790869;0.440203458039288;0.446611477047313;0.45139981284141;0.454592178484917;0.455648267901584;0.455116991656813;0.453101410287957;0.450568420829479;0.448261340946754;0.446652893307022;0.445686895169104;0.445412968196277;0.445801920881181;0.446391223485836;0.447076513233127;0.447678871527944;0.448114218357703;0.448380708976805;0.449016753343745;0.450116283162656;0.451881685880071;0.454502256488814;0.458236344853988;0.462979481706925;0.46894792310756;0.476238580192739;0.48390985736092;0.492186480824906;0.500083598982567;0.507444657537618;0.51568108059347;0.524051619831262;0.531628148890973;0.541884827220236;0.556652822348572;0.576504765136418;0.603169379147781;0.63663757611381;0.674980487361083;0.716038557658988;0.755418608481291;0.79029629601207;0.818824939823749;0.840326351499911;0.855807641238024;0.866744752996906;0.87359906949239;0.876715597898403;0.87707704346109;0.874526541910835;0.870229248922744;0.864607803997897;0.858054755133707;0.851023667285009;0.844057891863925;0.837598708552856;0.831925820993948;0.827608138157192;0.824214591931763;0.821620546538114;0.819847161550584;0.818236135267188;0.816683454372578;0.814962974254584;0.812047737240705;0.80789468331598;0.802571117725594;0.795831161962925;0.787669608125272;0.779035417915981;0.769914249520356;0.76062393159723;0.752279286730305;0.744537170858432;0.737120996973972;0.730649596388032;0.724960827168117;0.720514201822627;0.718003612984795;0.717561203967394;0.718765675942878
0.495137022282529;0.464691319307612;0.435889643718049;0.406945987986771;0.381900523534381;0.362367096992421;0.349953617841426;0.34262065130435;0.338222040486087;0.336717649749078;0.33664250083532;0.337008844927692;0.338212578079164;0.339613458153705;0.341184138274041;0.342378497949162;0.343507947858925;0.34505050516492;0.346678443745072;0.348179069630903;0.349354597038804;0.350994102719896;0.352217740822145;0.353591470094781;0.354870830923917;0.356127445341494;0.357592268216023;0.358896586122397;0.360396486128806;0.362018815232593;0.363497259654747;0.364934865431781;0.3668647659911;0.368812520043736;0.370887576285588;0.373911863598284;0.377922194801956;0.383404349673122;0.390296550665851;0.397554417823682;0.405033631894855;0.412352444359864;0.419084371445312;0.425606276624961;0.431712833964635;0.437549509305866;0.441812295212993;0.44477129171009;0.44582507515562;0.445573111507439;0.443982296753573;0.441988659578911;0.440230743812125;0.43899550823525;0.438373485363883;0.438326416755554;0.438780156019172;0.439506218280069;0.440217100711418;0.440925912171083;0.441411176883864;0.441717174690545;0.44236673865803;0.443404811018733;0.444988910089093;0.447272543835128;0.450516212929187;0.454597868811162;0.459796326123341;0.466105726135849;0.47278758326739;0.479928685799716;0.486826098016929;0.493117255106367;0.500307557451129;0.507485594636086;0.513752345880275;0.522211313490753;0.534337326999822;0.55077422847255;0.573001203718047;0.601122233539751;0.633607304347053;0.668512169679492;0.701903560253883;0.731130100654287;0.75484108075848;0.772437981182346;0.784922913716747;0.793853611277913;0.799325935690141;0.802036688847839;0.802492565044591;0.800881926057619;0.797726703754795;0.793630237730889;0.788608176210318;0.783378657410372;0.77801229838057;0.77303271080253;0.768688966190125;0.765421221098276;0.762923983382262;0.761142299075132;0.759941482114155;0.758898002145396;0.757911239022405;0.756745354430265;0.754582591308406;0.751285630609858;0.74704216869596;0.741536805133425;0.734866248282506;0.727729652270597;0.720136253838002;0.712389715240316;0.705494755224092;0.699108349161088;0.692889649876207;0.687469763962714;0.682676221377533;0.678835252069196;0.676467607304501;0.67564118968366;0.676456473589207
0.505155398348861;0.473205081760294;0.44303967962714;0.413556733962094;0.387503614238015;0.367449582387028;0.354479976266629;0.347035780612315;0.342700952941374;0.340933262470649;0.341036490697863;0.341517625439956;0.342693878153112;0.344246110418186;0.345853214572667;0.347023999832685;0.348180328287808;0.349652061186153;0.351163307541552;0.352609791704333;0.353695202229197;0.355245504821693;0.356402352577747;0.357724275656696;0.358974197690046;0.36011446194422;0.361518829983422;0.362703244174476;0.364169559204759;0.365790140051922;0.36722343147642;0.368724603468014;0.370637299077669;0.372526709783469;0.374681991751128;0.377860611615134;0.382124922996069;0.388017042412477;0.39546054694095;0.403302863244029;0.411323103359157;0.419317430563312;0.42653727725184;0.433403550940283;0.439971358945627;0.446189766240935;0.450757451213932;0.45379688516668;0.454901543480304;0.454551606145766;0.452707345949928;0.450479573104035;0.448397415802471;0.447000532609987;0.44618782493899;0.445987796026598;0.446384668586643;0.447021076459277;0.447783344200804;0.4484249773721;0.448828234790596;0.449060475940995;0.449645291750395;0.450726063041218;0.45234748018966;0.454793611940534;0.458224120086169;0.46259764987032;0.46817799813448;0.474950785220631;0.482154071068253;0.489857568928978;0.497263384789371;0.504089788228977;0.511767788881591;0.51938231067985;0.526086973482846;0.535056573388995;0.547955366468307;0.565234430647782;0.588434668416344;0.617759740581941;0.651385982603036;0.687425356990142;0.721795328315831;0.751896219542509;0.776235206776906;0.79439131312567;0.807412755774081;0.816604300351178;0.822462634367714;0.825319301411005;0.825795063849694;0.824278048231779;0.821111933983343;0.817034411397757;0.811908303612341;0.806599044450837;0.801121424374649;0.796006252522316;0.791625297829287;0.788233839019845;0.785710761020927;0.783937865569681;0.782736154086537;0.781703501274681;0.780654689753231;0.779399293378662;0.777219299627916;0.773888531816553;0.769471635544756;0.763833205576505;0.756939120432492;0.74958682934343;0.741766794278557;0.73375559932364;0.72660167480811;0.719983297807243;0.713559025006804;0.707930538093507;0.703010087667272;0.699081632362684;0.696717092367862;0.695971371079225;0.696827062353881
0.507359721874933;0.474944044053888;0.444670684611447;0.414504641117368;0.388020226054292;0.367482882556337;0.35460711038901;0.346958825064345;0.342603923665347;0.340737063166749;0.340754575658901;0.341391310518599;0.342615107215469;0.344007748084809;0.345547176804654;0.346647762390175;0.347813632531422;0.349321881622476;0.35081600205039;0.352178750623073;0.353186877106476;0.354850183583732;0.355951465880006;0.357250066985839;0.358524501342241;0.35964121636398;0.361004560924637;0.36223677111442;0.363642110551305;0.365223562693318;0.366697618059828;0.368123268571285;0.370033108186852;0.371982780679737;0.374142964252833;0.377290707773122;0.38154574014805;0.387471180788953;0.394899217282705;0.402830123485199;0.410909118233863;0.418903848007622;0.426177823008112;0.433150329948462;0.439751338277942;0.446021875703362;0.450695412718064;0.453754041241806;0.454828884779816;0.454443514207882;0.452593062724085;0.450205301507241;0.448046829209653;0.446597024795381;0.445708710139051;0.445477042661234;0.445918917158261;0.446554885260188;0.447246393200091;0.447859461913797;0.448275970606082;0.448499743888482;0.449095896914696;0.450119833751365;0.45175238035486;0.454150169077694;0.457658415056944;0.462039687770157;0.467691861704539;0.474520985973222;0.481752904179375;0.4895856999305;0.497083959467839;0.504063309677236;0.511830163163141;0.51956889238622;0.526439169659222;0.535586468204438;0.548743788668061;0.56644248639318;0.590330744239034;0.620546539059506;0.655245506810514;0.692723304089836;0.728532233366567;0.760022199794734;0.785601267007249;0.804596611916723;0.818267285587701;0.82781697297343;0.833810931707422;0.836672217127333;0.837164169587887;0.835213661066269;0.831757746834428;0.827201563539112;0.821707245660686;0.815942875034013;0.810095521433019;0.804663912812824;0.799830466652307;0.796242804721282;0.793518189082995;0.791521558116109;0.79017519201184;0.789019171257828;0.787897930723361;0.786535370960444;0.784126982214396;0.780554323527935;0.775852716606018;0.769895329533928;0.762577921563297;0.754797865030549;0.746549315690995;0.738075366313728;0.730500365010462;0.723448129274125;0.716644261712142;0.710751169871209;0.705570811698399;0.70137045726292;0.698793499501303;0.697938478057279;0.698783297847819
0.478456197499987;0.449644680246396;0.421903710877501;0.394374039387835;0.370275091178526;0.351636475639718;0.339586404302166;0.332711830080766;0.328501512242424;0.326672705248706;0.326621293129106;0.327144912522869;0.32821568647235;0.329515814358819;0.33108663342181;0.332376258200115;0.333691635830766;0.335250404190254;0.336800073923361;0.33839268306148;0.339722924798996;0.34142982076008;0.342789206269319;0.344321531138796;0.345699350449404;0.346978424744042;0.348606932593634;0.350024007958888;0.351511964214549;0.353243197696135;0.354787952539424;0.356311190743827;0.358278768916723;0.360132176392584;0.362242671440917;0.365013563718604;0.368726227631376;0.37385813926912;0.380138981121732;0.386862602031962;0.393644327822937;0.40031098524255;0.406471150469468;0.412357495062441;0.417965742615233;0.423266694513343;0.427355009995674;0.430091803833561;0.431167012532108;0.431070562376406;0.429782552685741;0.428167068519534;0.426666827883656;0.425691682874725;0.425304364794951;0.425341485162568;0.425955182495821;0.426701628729059;0.427469696896277;0.428233421343558;0.428750855362459;0.429109063518264;0.429817720950768;0.430788717874767;0.432338545526102;0.43448251234606;0.437522986136288;0.441270075180298;0.446037036561375;0.451801049779493;0.457807436379885;0.464187315391779;0.470248791814768;0.475756719318476;0.482202315099442;0.488734578371379;0.494257071810901;0.501758249420979;0.512511359478277;0.526935267175772;0.54643476339022;0.570908382154746;0.598835972826485;0.628392469564763;0.656229349648532;0.680280945569729;0.699542782006622;0.713808813835763;0.723827592095486;0.730969250151612;0.735419215394776;0.737512127321999;0.737958479280542;0.736680241356586;0.734030229385335;0.730782523214315;0.726804207577677;0.722661989287314;0.718504162181391;0.714684658161903;0.7113716590839;0.708978768624283;0.707189228101363;0.705945777373605;0.705193746382252;0.70452746558666;0.703847711580882;0.703005046632252;0.701329627584432;0.69874857061105;0.69537119213136;0.690854000081934;0.685237496343591;0.679324156051709;0.672922579658347;0.666286990381584;0.660316864277054;0.654823560408706;0.649650205823032;0.645074280952245;0.640775234916502;0.637473796408834;0.635888774515769;0.635592542522883;0.636299102245698
0.481996985570447;0.45251130955886;0.424153243686636;0.396441241776623;0.371834099103841;0.352892659574796;0.340526207295528;0.333348382137358;0.32932303602504;0.327206442368045;0.327099347311426;0.327549028677146;0.328684021116294;0.330003009562245;0.331517076858137;0.332708092812579;0.333913158333183;0.335513721540613;0.337144463051428;0.338664164674585;0.339845431035473;0.341571594561886;0.342909615408299;0.344381800365672;0.345702045972397;0.346969059269503;0.34858842221272;0.349896944587715;0.35139812019838;0.353137125165968;0.354687104095984;0.35620998800626;0.35815640063769;0.3600221196676;0.362046603522208;0.364929230295985;0.368723283839754;0.37384642968564;0.380301271602835;0.387225888534074;0.394154308310408;0.401017549056248;0.407302512607592;0.413304810178152;0.4191394323501;0.424547847200158;0.428690133857219;0.431504815509138;0.432630335604611;0.432447738115746;0.431082163388212;0.429309985280662;0.427714742622127;0.426643628869212;0.426239816616103;0.426192190832242;0.426782493460743;0.427488872433506;0.428257054709908;0.428967004230959;0.429501659314522;0.429798675988607;0.430522387157929;0.431515489721929;0.433038017768051;0.435276546399924;0.438348699233009;0.442199718156763;0.447126363743185;0.453047417862719;0.459240198702386;0.465877140863849;0.472165500553365;0.477925661165248;0.484600961907177;0.491359465909295;0.497138120365996;0.505019223251011;0.516252279037937;0.531364417368241;0.55184857130057;0.577536067992664;0.606851228763949;0.637990530377608;0.6674262228872;0.692917701582469;0.713454165505953;0.728663816058059;0.739424216666357;0.747068366406198;0.751881257086567;0.754127707626479;0.754613443949127;0.753242987490591;0.75050299964451;0.747009423780318;0.742820790855809;0.73831684239422;0.733895128286673;0.729739359021736;0.72616082724955;0.723528085385076;0.721580019603199;0.720190063401939;0.719340377730966;0.718593663502359;0.717810811468247;0.71691212562001;0.715118059971237;0.712321860104041;0.708712864990878;0.703901956129307;0.69791464918113;0.691582866049007;0.684786447513992;0.677822689095249;0.671553524437639;0.665756610912176;0.660317857557021;0.655438561279551;0.650882617783493;0.647397481004269;0.645609169103504;0.645025565364023;0.645629910003919
