1100;1105;1110;1115;1120;1125;1130;1135;1140;1145;1150;1155;1160;1165;1170;1175;1180;1185;1190;1195;1200;1205;1210;1215;1220;1225;1230;1235;1240;1245;1250;1255;1260;1265;1270;1275;1280;1285;1290;1295;1301;1306;1311;1316;1321;1326;1331;1336;1341;1346;1351;1356;1361;1366;1371;1376;1381;1386;1391;1396;1401;1406;1411;1416;1421;1426;1431;1436;1441;1446;1451;1456;1461;1466;1471;1476;1481;1486;1491;1496;1502;1507;1512;1517;1522;1527;1532;1537;1542;1547;1552;1557;1562;1567;1572;1577;1582;1587;1592;1597
0.517529;0.521052;0.515996;0.518663;0.523875;0.520229;0.522790;0.525297;0.527982;0.529006;0.531232;0.529728;0.536657;0.537216;0.536700;0.534397;0.539920;0.539453;0.545989;0.541803;0.545433;0.549903;0.549795;0.555443;0.556232;0.557504;0.560047;0.567977;0.563458;0.568070;0.568290;0.566464;0.574645;0.574097;0.576604;0.575841;0.583028;0.581076;0.586141;0.586003;0.585458;0.593492;0.594910;0.596099;0.594625;0.602570;0.597261;0.605162;0.604663;0.606882;0.607125;0.608385;0.610864;0.613002;0.613867;0.617655;0.621023;0.620342;0.626810;0.625731;0.626727;0.629958;0.627597;0.632156;0.637830;0.634807;0.633738;0.634765;0.642096;0.638578;0.644733;0.641376;0.644661;0.640613;0.643642;0.647727;0.649647;0.649741;0.648886;0.651459;0.657105;0.654672;0.656121;0.654290;0.655390;0.658081;0.655152;0.659202;0.659195;0.659297;0.660968;0.664108;0.661299;0.661803;0.669609;0.657483;0.667028;0.663745;0.664979;0.663806
0.520421;0.525694;0.528472;0.525302;0.528449;0.526935;0.529694;0.535970;0.537531;0.535447;0.541200;0.539202;0.541713;0.550520;0.548331;0.553367;0.554634;0.559642;0.557043;0.563814;0.562824;0.563755;0.569127;0.572742;0.574976;0.576587;0.582601;0.581906;0.587317;0.590884;0.591743;0.595372;0.599168;0.599506;0.603774;0.607967;0.611181;0.615760;0.616709;0.624277;0.618287;0.627760;0.626761;0.635110;0.634663;0.638521;0.641559;0.643100;0.644062;0.646597;0.649425;0.654406;0.655362;0.655442;0.659314;0.664932;0.667927;0.669280;0.673874;0.675757;0.668603;0.675012;0.674099;0.680546;0.680162;0.682037;0.687448;0.684581;0.685825;0.690483;0.696979;0.694506;0.694424;0.691939;0.694012;0.692443;0.695891;0.691282;0.691424;0.697559;0.694363;0.689893;0.690866;0.691044;0.690967;0.687764;0.690128;0.685452;0.685910;0.676865;0.685044;0.680111;0.677618;0.676145;0.675248;0.668627;0.667578;0.663939;0.660275;0.659402
0.504633;0.504865;0.505144;0.506357;0.507848;0.508072;0.511333;0.510846;0.511376;0.514755;0.515015;0.509694;0.513780;0.516564;0.515751;0.518583;0.522039;0.521881;0.520342;0.525703;0.528183;0.529829;0.534918;0.534064;0.538363;0.539359;0.541656;0.548099;0.545794;0.550819;0.557112;0.558360;0.563590;0.568180;0.569885;0.573929;0.573045;0.584797;0.587395;0.595301;0.604388;0.606884;0.610622;0.614939;0.620702;0.631781;0.635862;0.639586;0.648050;0.658446;0.663533;0.669387;0.674498;0.680753;0.686464;0.693951;0.704838;0.711869;0.716748;0.722353;0.733711;0.740445;0.741573;0.750762;0.761411;0.763535;0.771764;0.771259;0.778567;0.782608;0.789656;0.793994;0.797515;0.801455;0.804806;0.807059;0.810986;0.810842;0.810276;0.810620;0.816129;0.813953;0.810160;0.810343;0.806500;0.810860;0.804088;0.798799;0.799429;0.795035;0.793419;0.793251;0.784750;0.783200;0.778995;0.776814;0.768156;0.760507;0.762589;0.747730
0.589915;0.593890;0.599206;0.605102;0.610925;0.612960;0.623485;0.629836;0.641215;0.649507;0.659115;0.658812;0.672906;0.681712;0.688287;0.698570;0.705439;0.709508;0.716628;0.722803;0.730021;0.737781;0.747010;0.756371;0.765651;0.774314;0.777563;0.783917;0.791553;0.794430;0.805598;0.806946;0.811011;0.819003;0.821189;0.828183;0.830971;0.828938;0.837688;0.833669;0.843747;0.839490;0.846317;0.843112;0.847933;0.844955;0.837627;0.842735;0.837895;0.842220;0.834635;0.833514;0.830997;0.827626;0.827168;0.818647;0.817475;0.818126;0.804637;0.808439;0.798471;0.796355;0.792802;0.787060;0.780455;0.779048;0.771262;0.765290;0.759925;0.760089;0.750762;0.743876;0.744919;0.738598;0.728323;0.729706;0.716805;0.715564;0.711234;0.705937;0.704669;0.699974;0.698788;0.690218;0.686951;0.683844;0.678642;0.673759;0.673597;0.670328;0.668729;0.663986;0.664296;0.655388;0.656524;0.652485;0.648908;0.645690;0.644531;0.641628
0.506188;0.509326;0.505439;0.510808;0.513350;0.510253;0.513615;0.510638;0.512004;0.517083;0.513586;0.510782;0.514383;0.516378;0.516977;0.516818;0.521372;0.520861;0.521199;0.526576;0.528702;0.528962;0.533244;0.534321;0.535595;0.537705;0.539795;0.541490;0.543661;0.546843;0.549643;0.555575;0.559403;0.556222;0.555521;0.565418;0.566676;0.574626;0.576478;0.581729;0.583637;0.581643;0.589259;0.600525;0.604874;0.605758;0.609386;0.617764;0.624379;0.630349;0.636301;0.639686;0.638078;0.649934;0.661740;0.658621;0.665201;0.673091;0.677207;0.682681;0.686885;0.690426;0.698483;0.702469;0.705632;0.705800;0.713886;0.724245;0.730237;0.730391;0.735214;0.736506;0.736798;0.740312;0.747341;0.752823;0.745783;0.750371;0.752719;0.753341;0.750895;0.757325;0.754379;0.753920;0.752619;0.754348;0.745555;0.748178;0.753999;0.747257;0.741514;0.742512;0.737595;0.735182;0.732450;0.724844;0.729379;0.720018;0.718953;0.716199
0.599706;0.607855;0.613654;0.618771;0.628342;0.640305;0.639696;0.651317;0.656425;0.661324;0.673234;0.685320;0.691983;0.702218;0.712061;0.720507;0.723689;0.735826;0.743741;0.751355;0.761691;0.773577;0.773550;0.789803;0.791523;0.800720;0.808647;0.814820;0.824030;0.830304;0.832485;0.841879;0.843268;0.852624;0.853255;0.858451;0.859914;0.864680;0.864115;0.868734;0.871653;0.873034;0.873012;0.866665;0.864535;0.866209;0.857998;0.864017;0.855306;0.851819;0.850236;0.848762;0.840381;0.834201;0.825778;0.828037;0.823007;0.810310;0.803394;0.793487;0.793346;0.779268;0.775834;0.770762;0.761280;0.757670;0.746394;0.741320;0.733707;0.728124;0.722561;0.710438;0.707144;0.700383;0.694187;0.686703;0.681150;0.675709;0.671180;0.664377;0.656967;0.656156;0.654248;0.646786;0.641624;0.638991;0.635794;0.629767;0.624340;0.623659;0.619862;0.617772;0.615593;0.618518;0.615023;0.610948;0.610262;0.608271;0.604310;0.607072
0.520433;0.523380;0.526284;0.526260;0.526169;0.533027;0.533890;0.529021;0.538670;0.541819;0.542414;0.542644;0.545822;0.546355;0.550696;0.555525;0.554419;0.558628;0.559661;0.566935;0.570837;0.568642;0.573792;0.573937;0.580903;0.587849;0.589488;0.589848;0.593374;0.596207;0.601120;0.603036;0.608868;0.620019;0.616290;0.619383;0.622480;0.632484;0.628963;0.634508;0.641937;0.642309;0.650904;0.655891;0.660628;0.666998;0.665707;0.670851;0.673367;0.676863;0.688756;0.688139;0.699931;0.699892;0.703646;0.712287;0.714431;0.718354;0.727074;0.728776;0.731861;0.730471;0.737798;0.744196;0.744813;0.750380;0.750711;0.756854;0.758460;0.761281;0.767470;0.771011;0.771692;0.776295;0.772102;0.778876;0.780567;0.781657;0.776391;0.780088;0.783601;0.780379;0.782795;0.781762;0.784996;0.781461;0.778786;0.774314;0.778267;0.772304;0.777444;0.772935;0.772408;0.764683;0.766932;0.762058;0.757098;0.758104;0.757676;0.748175
0.583817;0.585298;0.588229;0.594523;0.601928;0.606120;0.613497;0.622049;0.625182;0.635379;0.641244;0.650591;0.651995;0.660310;0.671265;0.668015;0.681188;0.689259;0.699275;0.702750;0.715682;0.721772;0.726866;0.734665;0.739868;0.746240;0.752730;0.757343;0.763843;0.770316;0.774837;0.782513;0.783138;0.788752;0.800715;0.798679;0.808403;0.807927;0.809550;0.811125;0.817538;0.815067;0.810687;0.821917;0.825184;0.822107;0.814962;0.820896;0.818685;0.816668;0.813172;0.817625;0.810307;0.813552;0.806854;0.805579;0.801190;0.794243;0.792361;0.797501;0.787405;0.785730;0.780427;0.774801;0.777563;0.762660;0.766851;0.760440;0.754657;0.746379;0.745356;0.740211;0.738009;0.736295;0.727403;0.719018;0.718198;0.716950;0.713697;0.704881;0.703010;0.702801;0.699391;0.694653;0.690413;0.691796;0.684622;0.680876;0.676762;0.669109;0.668824;0.663479;0.665927;0.662738;0.659092;0.650633;0.655734;0.647296;0.649392;0.645591
0.529355;0.531584;0.535661;0.540839;0.538908;0.542156;0.546262;0.542143;0.546760;0.556261;0.556887;0.561704;0.560842;0.566066;0.561018;0.572410;0.571119;0.576251;0.570900;0.581297;0.583672;0.583740;0.594019;0.591822;0.591943;0.595509;0.600289;0.603163;0.607012;0.610961;0.609055;0.611721;0.610810;0.615386;0.615176;0.619574;0.620305;0.618781;0.622375;0.629048;0.625175;0.626518;0.621442;0.629847;0.629112;0.630261;0.626364;0.625512;0.629866;0.626972;0.624711;0.629307;0.628372;0.626615;0.623363;0.626276;0.620408;0.620098;0.621566;0.613178;0.620206;0.619104;0.611694;0.611711;0.613149;0.612388;0.611588;0.608540;0.604005;0.604957;0.603251;0.597524;0.600437;0.600778;0.595247;0.597688;0.591650;0.596336;0.588140;0.587153;0.585276;0.585579;0.583981;0.580823;0.581050;0.581265;0.580190;0.580338;0.578494;0.573743;0.575305;0.576678;0.577371;0.575509;0.571829;0.575644;0.578084;0.576538;0.575237;0.574744
0.523441;0.523776;0.524786;0.527992;0.526722;0.528608;0.527833;0.531157;0.534161;0.534099;0.543823;0.539899;0.543843;0.548327;0.543611;0.549839;0.551743;0.552999;0.563087;0.557512;0.566625;0.559075;0.571807;0.566501;0.572320;0.578150;0.578190;0.583028;0.591005;0.587966;0.593888;0.600103;0.604797;0.602057;0.607220;0.615931;0.617330;0.618102;0.621529;0.622790;0.630896;0.634145;0.635544;0.642186;0.651920;0.653864;0.656540;0.657245;0.662687;0.665633;0.672225;0.671838;0.678188;0.685423;0.690821;0.692585;0.697186;0.696244;0.704755;0.711689;0.712981;0.716890;0.725062;0.724539;0.724371;0.731948;0.733802;0.741512;0.737583;0.740038;0.748338;0.751103;0.749653;0.751382;0.756330;0.757851;0.754074;0.762284;0.762600;0.767295;0.763636;0.760344;0.768292;0.768203;0.769919;0.774639;0.773279;0.772139;0.768603;0.769315;0.769328;0.769525;0.765216;0.763370;0.766497;0.767095;0.759120;0.754954;0.758291;0.763401
0.586004;0.595684;0.597372;0.606440;0.611566;0.616945;0.625852;0.631913;0.636069;0.646296;0.653641;0.658368;0.664307;0.674766;0.682015;0.693317;0.698953;0.706778;0.718085;0.727633;0.732692;0.738696;0.747739;0.755166;0.765294;0.768960;0.775156;0.788022;0.790796;0.800208;0.803430;0.811125;0.814131;0.824816;0.822873;0.833810;0.837009;0.840142;0.843562;0.845428;0.849068;0.850357;0.853174;0.849632;0.857542;0.853725;0.855793;0.859776;0.852430;0.854342;0.853910;0.857954;0.842682;0.845103;0.846976;0.839285;0.836253;0.833519;0.823305;0.825074;0.823093;0.820055;0.813715;0.809287;0.804369;0.799744;0.794660;0.785951;0.786537;0.779878;0.774228;0.768196;0.766783;0.756788;0.756423;0.749600;0.745318;0.739261;0.734246;0.731475;0.727376;0.715094;0.716480;0.709192;0.704648;0.694621;0.691297;0.686333;0.688290;0.676656;0.672861;0.669349;0.664153;0.660526;0.654479;0.646611;0.648187;0.641840;0.633902;0.634357
0.572548;0.574979;0.578676;0.590463;0.591852;0.595731;0.598712;0.605678;0.611063;0.618009;0.627513;0.629708;0.641449;0.648000;0.649311;0.657186;0.660998;0.670513;0.674204;0.683206;0.684294;0.694979;0.698932;0.704995;0.714745;0.718220;0.723557;0.734724;0.735313;0.738628;0.742442;0.750557;0.753881;0.759170;0.757479;0.764313;0.765680;0.765798;0.774634;0.773377;0.774524;0.780065;0.781452;0.782403;0.782577;0.780221;0.776515;0.782264;0.781383;0.777298;0.774732;0.776899;0.776479;0.771025;0.769631;0.761442;0.765610;0.761223;0.756965;0.754104;0.749887;0.748476;0.745937;0.745702;0.740037;0.737667;0.728887;0.727265;0.723517;0.718082;0.718506;0.715841;0.709698;0.707127;0.710403;0.705079;0.702591;0.695631;0.694017;0.693202;0.691177;0.689147;0.685833;0.681999;0.682976;0.686179;0.682754;0.677526;0.678354;0.674658;0.676703;0.674301;0.669326;0.670454;0.671384;0.671489;0.673394;0.672787;0.671250;0.666514
0.521661;0.523564;0.526294;0.529912;0.527252;0.528719;0.533693;0.530037;0.538069;0.541911;0.541007;0.544263;0.539138;0.539503;0.553096;0.549523;0.554274;0.556984;0.555671;0.557226;0.565001;0.562352;0.565020;0.574215;0.572963;0.573808;0.576007;0.579533;0.580618;0.580114;0.587010;0.589171;0.590682;0.588703;0.595462;0.590886;0.592306;0.598144;0.595825;0.601923;0.599160;0.605168;0.605093;0.603558;0.608713;0.608782;0.602942;0.606323;0.611408;0.610271;0.611995;0.610660;0.605257;0.614806;0.613646;0.611532;0.613720;0.616694;0.616291;0.616407;0.618105;0.615028;0.613192;0.614433;0.616721;0.618573;0.616333;0.616872;0.615244;0.619203;0.621158;0.618851;0.622943;0.626365;0.624115;0.623338;0.624514;0.629794;0.631858;0.629162;0.631478;0.634479;0.631339;0.635520;0.639572;0.639354;0.637995;0.646264;0.646731;0.647515;0.651100;0.653579;0.655964;0.658207;0.658297;0.661999;0.664896;0.666480;0.670457;0.673010
0.544622;0.543111;0.551453;0.550846;0.555853;0.560332;0.561137;0.567768;0.571488;0.571067;0.576569;0.581009;0.584604;0.591374;0.594988;0.598501;0.598071;0.606130;0.610644;0.618078;0.619599;0.625139;0.631434;0.633090;0.635341;0.644004;0.647123;0.655667;0.656265;0.661724;0.662193;0.668414;0.674230;0.674070;0.679916;0.685929;0.689823;0.690487;0.694325;0.698271;0.704990;0.706885;0.711512;0.707222;0.712221;0.718135;0.716642;0.724617;0.722033;0.725357;0.728576;0.729445;0.735921;0.730828;0.736114;0.737453;0.739452;0.738073;0.739114;0.742269;0.743606;0.748737;0.744080;0.744688;0.742314;0.744525;0.746941;0.742551;0.742081;0.743642;0.742430;0.746302;0.742290;0.745962;0.741021;0.734017;0.732608;0.735056;0.734071;0.733823;0.728362;0.725412;0.723684;0.721393;0.711236;0.712433;0.710207;0.710390;0.695336;0.699811;0.698175;0.693764;0.692898;0.687410;0.678387;0.675982;0.676859;0.670790;0.664792;0.661176
0.545954;0.550893;0.552659;0.559493;0.562112;0.566477;0.572826;0.568105;0.574398;0.580985;0.587105;0.591659;0.596688;0.601491;0.606128;0.608195;0.615470;0.617594;0.622634;0.624252;0.632795;0.641579;0.642905;0.651839;0.654232;0.656171;0.662304;0.665145;0.669327;0.673654;0.676894;0.683968;0.689677;0.692793;0.694351;0.700676;0.705626;0.710351;0.712210;0.714455;0.720587;0.720562;0.722291;0.723089;0.729553;0.731178;0.730113;0.732912;0.735618;0.740613;0.740718;0.739290;0.740822;0.746305;0.747225;0.750603;0.744056;0.747010;0.753587;0.750020;0.756619;0.748942;0.750089;0.756221;0.750038;0.752737;0.754295;0.752987;0.755733;0.754324;0.754787;0.757533;0.756658;0.757072;0.752332;0.756271;0.754297;0.758850;0.752848;0.756732;0.750915;0.754475;0.754577;0.754489;0.755086;0.753120;0.752324;0.752255;0.748918;0.754480;0.749955;0.752371;0.746412;0.750843;0.754868;0.751133;0.751105;0.741546;0.747862;0.742991
0.549351;0.555132;0.552506;0.554520;0.564222;0.566957;0.571082;0.573972;0.580347;0.578753;0.586426;0.592273;0.591126;0.601261;0.605581;0.607969;0.616636;0.615265;0.621570;0.625081;0.633846;0.634835;0.641441;0.640377;0.649059;0.653246;0.660104;0.665003;0.668036;0.672504;0.678661;0.682449;0.684248;0.685789;0.687286;0.691910;0.696154;0.698793;0.699385;0.702704;0.704128;0.709143;0.712102;0.710594;0.718561;0.718330;0.718147;0.724816;0.724342;0.720603;0.724966;0.729083;0.726729;0.722838;0.726500;0.727735;0.727732;0.730166;0.729246;0.734702;0.726134;0.726796;0.735108;0.727310;0.729582;0.729330;0.731479;0.727772;0.728703;0.727486;0.727898;0.730612;0.728346;0.732577;0.726809;0.731940;0.730810;0.732306;0.732514;0.729625;0.731182;0.731609;0.731724;0.732605;0.735511;0.734580;0.740391;0.740115;0.738178;0.736824;0.736223;0.744133;0.740298;0.744647;0.741519;0.741926;0.739327;0.747083;0.745727;0.752091
0.515589;0.515497;0.520594;0.522306;0.520027;0.527507;0.529104;0.527470;0.530612;0.532112;0.532684;0.536761;0.537070;0.539014;0.544351;0.542035;0.551323;0.550121;0.549832;0.554716;0.559173;0.563281;0.558918;0.567636;0.568669;0.570237;0.576733;0.578864;0.578118;0.586251;0.586041;0.594873;0.599323;0.599406;0.600558;0.609378;0.613599;0.614489;0.619996;0.628816;0.626634;0.633316;0.636397;0.650142;0.650111;0.653436;0.658631;0.665490;0.672633;0.673417;0.677693;0.683223;0.687517;0.693344;0.701227;0.706463;0.712259;0.716928;0.723012;0.729312;0.729050;0.735025;0.740087;0.741775;0.754837;0.758008;0.762372;0.766632;0.770076;0.770111;0.775444;0.778957;0.787086;0.791247;0.787327;0.791038;0.793633;0.796259;0.797842;0.798243;0.801435;0.798814;0.796282;0.801995;0.797699;0.797110;0.798170;0.794545;0.793954;0.789756;0.792489;0.796620;0.788260;0.787677;0.782710;0.778465;0.776403;0.777168;0.768685;0.767676
0.560101;0.565271;0.565020;0.571558;0.575948;0.581519;0.587156;0.592722;0.599032;0.601746;0.606533;0.611418;0.613913;0.618590;0.622665;0.631852;0.640912;0.649272;0.646778;0.653900;0.656075;0.661932;0.668995;0.674586;0.676525;0.684009;0.688079;0.693215;0.696450;0.695916;0.705280;0.706628;0.707887;0.710430;0.716447;0.716735;0.715408;0.719914;0.722912;0.720559;0.723307;0.727339;0.724997;0.720819;0.724320;0.727692;0.720340;0.718969;0.715202;0.717584;0.713197;0.713404;0.712582;0.704994;0.705331;0.697095;0.700304;0.697463;0.690275;0.689639;0.684502;0.679784;0.678417;0.675977;0.667481;0.664818;0.667043;0.661357;0.657089;0.652999;0.654440;0.649863;0.650487;0.646450;0.644446;0.641763;0.635278;0.637104;0.634118;0.633675;0.637348;0.636125;0.633385;0.631049;0.631752;0.633331;0.631419;0.630963;0.632008;0.633505;0.636693;0.641084;0.639830;0.643403;0.644273;0.650226;0.651068;0.647106;0.652207;0.654607
0.504168;0.506722;0.505752;0.504903;0.505024;0.507042;0.510136;0.507259;0.507404;0.510527;0.508989;0.511279;0.508480;0.508640;0.511423;0.512253;0.510217;0.513525;0.513641;0.511046;0.511915;0.518269;0.513883;0.513838;0.517062;0.513370;0.519493;0.516484;0.516551;0.519250;0.521679;0.522343;0.519178;0.522047;0.521444;0.522835;0.525393;0.522357;0.525742;0.531220;0.526652;0.528237;0.526915;0.533485;0.535964;0.527651;0.535696;0.530182;0.538746;0.539346;0.541372;0.537609;0.544609;0.543322;0.546205;0.547820;0.547631;0.551063;0.551429;0.560282;0.560052;0.563979;0.567180;0.569755;0.572932;0.577364;0.579319;0.583455;0.587088;0.587882;0.600636;0.601724;0.605322;0.615299;0.621355;0.624585;0.629129;0.638824;0.649812;0.650702;0.660756;0.669854;0.675172;0.684940;0.697751;0.699711;0.707471;0.713938;0.726711;0.735433;0.741275;0.754928;0.766475;0.775416;0.786077;0.799667;0.804991;0.813358;0.824376;0.829000
0.539101;0.542505;0.543064;0.553556;0.551915;0.554059;0.558986;0.564694;0.563796;0.566842;0.570700;0.569613;0.580594;0.583698;0.581206;0.591031;0.593028;0.595611;0.599573;0.603976;0.608519;0.610062;0.613137;0.618260;0.623557;0.623017;0.625788;0.632239;0.634135;0.638077;0.645105;0.640012;0.647293;0.649492;0.648916;0.650550;0.651626;0.652086;0.655874;0.654723;0.657843;0.654593;0.656607;0.655890;0.660246;0.655500;0.653749;0.659396;0.653824;0.650924;0.651130;0.652502;0.647986;0.646914;0.641032;0.640956;0.640578;0.636007;0.634469;0.629078;0.631147;0.626682;0.621643;0.622938;0.619478;0.622647;0.615265;0.612445;0.606985;0.605870;0.604010;0.600807;0.598706;0.596046;0.591913;0.589010;0.589141;0.585024;0.581049;0.582750;0.579839;0.578555;0.574256;0.576593;0.571136;0.570204;0.566972;0.569658;0.565142;0.566022;0.562176;0.565029;0.563038;0.565191;0.560495;0.561701;0.565398;0.557261;0.562664;0.559944
0.516359;0.518197;0.516588;0.516638;0.520062;0.521129;0.525676;0.524996;0.526253;0.526381;0.531977;0.531951;0.531065;0.533130;0.540405;0.539555;0.536131;0.544494;0.546802;0.541705;0.544076;0.548326;0.546721;0.550845;0.547497;0.550225;0.547321;0.552089;0.554120;0.558067;0.556209;0.556440;0.560803;0.563436;0.566072;0.561507;0.566945;0.565180;0.564653;0.564947;0.567783;0.567104;0.564746;0.562304;0.567589;0.568760;0.565782;0.566208;0.566226;0.565100;0.571061;0.566659;0.561151;0.563579;0.563164;0.564297;0.565466;0.560874;0.564064;0.563401;0.564885;0.563293;0.554976;0.556494;0.561955;0.562738;0.562581;0.565252;0.560792;0.559047;0.556838;0.560194;0.559270;0.558886;0.559705;0.558258;0.554906;0.561112;0.558007;0.559688;0.561752;0.561393;0.560994;0.561875;0.558223;0.566306;0.566291;0.566264;0.569577;0.569641;0.572154;0.578129;0.575853;0.578619;0.574189;0.577678;0.585606;0.585725;0.589924;0.589174
0.569963;0.576374;0.574746;0.579442;0.583422;0.592832;0.591925;0.600785;0.607022;0.614396;0.617423;0.625693;0.629865;0.637961;0.641364;0.656143;0.657701;0.660591;0.670589;0.679443;0.680868;0.689674;0.694621;0.700893;0.706523;0.713491;0.720310;0.723534;0.727539;0.735472;0.742539;0.745378;0.752380;0.754086;0.759500;0.761475;0.768059;0.768878;0.773540;0.776549;0.779915;0.777036;0.782132;0.786276;0.783129;0.789164;0.786523;0.786259;0.788092;0.789421;0.789038;0.791983;0.793161;0.789342;0.781395;0.784544;0.784275;0.781723;0.780899;0.779219;0.779283;0.779988;0.770290;0.769607;0.764749;0.766518;0.763084;0.762629;0.756443;0.756351;0.753430;0.750870;0.744016;0.740155;0.740430;0.738105;0.734588;0.731277;0.729500;0.721218;0.720670;0.721330;0.714283;0.715906;0.708845;0.704578;0.701166;0.697639;0.696622;0.695753;0.687045;0.684471;0.686524;0.680718;0.679328;0.679493;0.669797;0.670535;0.664973;0.661603
0.564634;0.569789;0.574860;0.581608;0.587335;0.586748;0.597347;0.597478;0.603058;0.612798;0.617737;0.624346;0.635125;0.637875;0.643775;0.653941;0.655711;0.665646;0.671771;0.678096;0.679362;0.688882;0.698739;0.702471;0.711853;0.714959;0.721177;0.724080;0.733164;0.740900;0.746281;0.749130;0.757636;0.764649;0.765896;0.776311;0.776983;0.777294;0.779523;0.785832;0.786303;0.789498;0.793737;0.796056;0.802172;0.802551;0.801004;0.808399;0.811232;0.812700;0.808377;0.811859;0.814001;0.814163;0.812195;0.814557;0.812837;0.810757;0.807861;0.812820;0.811037;0.809293;0.808845;0.806804;0.801759;0.804581;0.806494;0.806460;0.797796;0.799069;0.801581;0.796389;0.788802;0.787335;0.790765;0.785076;0.781103;0.784690;0.775475;0.774395;0.771530;0.764735;0.764188;0.759030;0.756656;0.760842;0.753840;0.750240;0.750162;0.745239;0.742924;0.741019;0.733016;0.728736;0.727766;0.721403;0.718830;0.717187;0.708806;0.705130
0.556249;0.563667;0.561964;0.569171;0.567285;0.575958;0.580494;0.584822;0.591591;0.596266;0.602338;0.603823;0.610669;0.612910;0.623325;0.625418;0.636095;0.635457;0.644131;0.648864;0.651272;0.657167;0.666093;0.666310;0.673491;0.682210;0.679992;0.688929;0.695669;0.702443;0.702426;0.712596;0.710290;0.715385;0.720577;0.727676;0.727399;0.726084;0.732726;0.732289;0.738713;0.739571;0.740515;0.743226;0.744361;0.747529;0.747079;0.751591;0.751274;0.747908;0.748576;0.746175;0.748452;0.747436;0.745557;0.750182;0.746351;0.744961;0.741346;0.736926;0.743399;0.743475;0.735741;0.732333;0.731726;0.726166;0.732726;0.731003;0.723488;0.720945;0.716461;0.712871;0.706091;0.711728;0.706051;0.703368;0.703395;0.696745;0.694628;0.689261;0.688439;0.684254;0.679637;0.673907;0.672597;0.671116;0.663038;0.663387;0.654446;0.654943;0.652184;0.646485;0.644801;0.641599;0.635970;0.631880;0.630003;0.627329;0.620800;0.621865
0.504484;0.506109;0.510606;0.506556;0.505965;0.508247;0.508250;0.506568;0.509183;0.507852;0.506353;0.510995;0.511999;0.512852;0.506146;0.516257;0.513255;0.519553;0.518029;0.516071;0.519826;0.517685;0.524408;0.525552;0.527390;0.525527;0.530031;0.530034;0.534431;0.529384;0.534019;0.538391;0.541046;0.543217;0.543128;0.539587;0.548574;0.552765;0.558878;0.555248;0.562076;0.566678;0.571176;0.573371;0.578718;0.583962;0.587300;0.588537;0.591812;0.598296;0.599983;0.604068;0.614919;0.609059;0.617708;0.626355;0.624987;0.630846;0.632561;0.635711;0.640852;0.647783;0.652578;0.658179;0.662881;0.669584;0.668856;0.672414;0.675509;0.677366;0.684219;0.693225;0.694282;0.697798;0.705407;0.705596;0.708794;0.712539;0.715699;0.714620;0.719728;0.722943;0.722175;0.724843;0.729098;0.731202;0.734645;0.730373;0.736295;0.741065;0.733058;0.743911;0.739282;0.741702;0.735106;0.740495;0.743927;0.745210;0.743281;0.745322
0.548986;0.547893;0.554358;0.559410;0.556320;0.562360;0.567761;0.567779;0.577952;0.577903;0.580792;0.587439;0.590704;0.597162;0.594767;0.603356;0.608752;0.607462;0.611852;0.619298;0.622475;0.625139;0.631192;0.636218;0.640092;0.638505;0.645945;0.655578;0.652702;0.655807;0.654242;0.662571;0.664670;0.668916;0.668597;0.672185;0.670919;0.672275;0.681935;0.678173;0.676546;0.678348;0.686007;0.683729;0.674798;0.678001;0.682085;0.678111;0.675407;0.675355;0.678085;0.675583;0.674392;0.670680;0.675291;0.669810;0.667764;0.663096;0.664327;0.660630;0.660914;0.655201;0.655714;0.651450;0.648746;0.642566;0.642580;0.641206;0.644530;0.636863;0.637831;0.631729;0.630672;0.634459;0.626510;0.628335;0.621829;0.619871;0.623275;0.621371;0.619648;0.621830;0.619299;0.618192;0.621512;0.614282;0.616300;0.617814;0.618997;0.617953;0.618263;0.619919;0.620321;0.624724;0.627392;0.621680;0.627022;0.626885;0.628152;0.636447
0.548088;0.551016;0.553905;0.560722;0.562027;0.566490;0.566045;0.573637;0.580052;0.585760;0.589202;0.590053;0.596208;0.599216;0.598967;0.608872;0.611009;0.616696;0.623108;0.625631;0.628722;0.633956;0.637039;0.646885;0.645721;0.653750;0.656771;0.659170;0.665963;0.671214;0.672927;0.675490;0.681439;0.683481;0.686726;0.689410;0.689207;0.696609;0.692222;0.695794;0.701487;0.702760;0.696896;0.702919;0.702223;0.704472;0.702586;0.707449;0.705709;0.704771;0.703452;0.703017;0.705099;0.701094;0.703836;0.700616;0.703563;0.698540;0.698938;0.694869;0.699444;0.697968;0.692069;0.689712;0.689875;0.688115;0.688031;0.686596;0.685810;0.680226;0.681238;0.675664;0.679127;0.677362;0.681970;0.673347;0.673255;0.671628;0.670234;0.670557;0.666032;0.670561;0.668279;0.661955;0.665600;0.661305;0.661066;0.657586;0.660440;0.662206;0.659242;0.659985;0.663059;0.658843;0.662350;0.659461;0.654669;0.661937;0.658636;0.659988
0.522930;0.529392;0.531410;0.534070;0.533956;0.537091;0.537009;0.541466;0.544534;0.547883;0.550286;0.558152;0.555407;0.551957;0.558058;0.558280;0.560900;0.565405;0.570943;0.567428;0.572844;0.578666;0.576271;0.580960;0.582073;0.588513;0.588325;0.589585;0.594668;0.594915;0.600085;0.601851;0.603197;0.600996;0.602142;0.607141;0.606128;0.605436;0.608469;0.612931;0.615536;0.617463;0.609950;0.617547;0.622471;0.617696;0.624540;0.622838;0.622613;0.621995;0.624135;0.626599;0.621209;0.619925;0.623161;0.622238;0.623238;0.621551;0.615713;0.623394;0.622007;0.624988;0.622918;0.621320;0.625458;0.619209;0.624316;0.624180;0.619066;0.613882;0.619623;0.614937;0.616405;0.610109;0.611048;0.618449;0.618407;0.613989;0.613815;0.615884;0.608869;0.614821;0.612281;0.607537;0.608327;0.608143;0.610011;0.608362;0.611700;0.604129;0.605709;0.607440;0.605464;0.602493;0.603932;0.607561;0.611030;0.604908;0.606606;0.610496
0.592185;0.603907;0.610936;0.618290;0.623707;0.633706;0.639918;0.644890;0.661886;0.669608;0.673545;0.681195;0.692694;0.697783;0.704787;0.715582;0.725244;0.733062;0.744104;0.745956;0.759986;0.764351;0.778721;0.787261;0.792486;0.799031;0.809197;0.809479;0.825720;0.825337;0.832347;0.841860;0.847800;0.850909;0.857122;0.862340;0.870686;0.872775;0.868729;0.875015;0.872775;0.880080;0.878653;0.884590;0.877771;0.884109;0.878200;0.879211;0.875350;0.872878;0.870902;0.864685;0.863527;0.856093;0.858270;0.848685;0.842848;0.841212;0.835399;0.826377;0.823962;0.819829;0.815838;0.805810;0.804372;0.793227;0.788625;0.785230;0.778669;0.766598;0.768215;0.760328;0.744272;0.742568;0.738781;0.737830;0.725385;0.723985;0.717772;0.711562;0.706224;0.701107;0.694912;0.687003;0.688554;0.678744;0.674552;0.671477;0.667145;0.660648;0.657665;0.651763;0.647332;0.644122;0.645933;0.636584;0.634217;0.633219;0.625952;0.626987
0.556183;0.558793;0.561294;0.562961;0.568956;0.581049;0.581997;0.584388;0.588564;0.590397;0.594550;0.604640;0.609149;0.612672;0.623937;0.625192;0.627437;0.633987;0.634293;0.646912;0.647971;0.653186;0.657621;0.665544;0.666274;0.676634;0.680121;0.685839;0.684135;0.693810;0.697368;0.695634;0.702233;0.706262;0.707836;0.716530;0.710828;0.713552;0.718772;0.730700;0.721513;0.721844;0.726041;0.729928;0.728485;0.730669;0.729721;0.729467;0.727537;0.728726;0.728262;0.726529;0.721851;0.719365;0.723057;0.726743;0.721177;0.718943;0.715224;0.714490;0.711856;0.709469;0.711927;0.711837;0.705306;0.700968;0.698187;0.702158;0.694532;0.689809;0.686899;0.687508;0.681792;0.685572;0.679264;0.680357;0.671504;0.675306;0.669817;0.667841;0.665638;0.667936;0.665690;0.660535;0.657406;0.663463;0.660538;0.656740;0.653610;0.654921;0.649887;0.649649;0.648714;0.649177;0.651102;0.643764;0.642444;0.645892;0.644855;0.644276
0.530815;0.530114;0.532053;0.535953;0.536159;0.541239;0.543660;0.542492;0.549932;0.550461;0.557233;0.553234;0.556143;0.564445;0.566283;0.566472;0.571331;0.571997;0.577820;0.577895;0.581214;0.581918;0.592407;0.590754;0.594617;0.595520;0.595729;0.600109;0.605309;0.605797;0.607093;0.609880;0.612410;0.613957;0.619707;0.616945;0.620320;0.623175;0.624840;0.622264;0.620711;0.619812;0.624303;0.626847;0.620909;0.624213;0.626420;0.625059;0.624115;0.627471;0.626067;0.627866;0.626958;0.626316;0.625529;0.626238;0.627244;0.622883;0.619071;0.618975;0.622282;0.616358;0.615865;0.617173;0.612329;0.614886;0.615709;0.614097;0.611634;0.608901;0.609415;0.605518;0.607195;0.603879;0.609368;0.601969;0.600574;0.601093;0.597591;0.603000;0.595412;0.592585;0.592321;0.594744;0.591504;0.590774;0.591934;0.586775;0.592024;0.591239;0.593358;0.583834;0.592914;0.591162;0.588734;0.586853;0.587341;0.589532;0.587601;0.590297
0.503044;0.502722;0.500203;0.499909;0.500625;0.503140;0.503480;0.500791;0.503189;0.499213;0.507883;0.504114;0.503371;0.503896;0.502852;0.504744;0.507223;0.505857;0.513449;0.506665;0.506389;0.509518;0.510033;0.508955;0.510840;0.508729;0.510370;0.511806;0.511413;0.511287;0.515233;0.516017;0.520541;0.514386;0.518841;0.514304;0.516750;0.515616;0.518851;0.520917;0.522709;0.521327;0.524143;0.525128;0.525039;0.523809;0.526696;0.532908;0.531271;0.533395;0.532291;0.538886;0.536525;0.533895;0.536883;0.543196;0.547552;0.544891;0.545631;0.549575;0.549800;0.554343;0.552599;0.555048;0.556883;0.560543;0.566836;0.566857;0.566810;0.569003;0.572888;0.571217;0.574453;0.579419;0.585870;0.585491;0.588560;0.591586;0.592073;0.594904;0.599232;0.600224;0.600890;0.606076;0.614428;0.607640;0.615709;0.621327;0.621124;0.624186;0.629423;0.631874;0.636594;0.639984;0.645488;0.648742;0.654045;0.650865;0.656777;0.664528
0.500066;0.502280;0.506057;0.507207;0.502424;0.504392;0.507184;0.511336;0.508702;0.505208;0.504091;0.506804;0.509038;0.506503;0.508052;0.504774;0.515028;0.511616;0.509869;0.512839;0.511002;0.512232;0.511411;0.511058;0.513373;0.510729;0.512990;0.511922;0.508969;0.509509;0.511407;0.516701;0.515591;0.512728;0.515316;0.514553;0.516134;0.519478;0.513997;0.514489;0.514688;0.510512;0.513745;0.517121;0.513636;0.514711;0.510896;0.514251;0.515240;0.517285;0.515974;0.516683;0.513426;0.519570;0.515825;0.516519;0.514484;0.513235;0.519748;0.517561;0.514013;0.520847;0.516344;0.517619;0.515251;0.515592;0.520713;0.515255;0.519411;0.515625;0.522475;0.525125;0.524061;0.526354;0.526540;0.527351;0.525428;0.526187;0.532604;0.529451;0.530274;0.532263;0.536016;0.535367;0.536181;0.540715;0.536930;0.542569;0.553050;0.543179;0.553593;0.553311;0.555300;0.560082;0.562622;0.567281;0.572011;0.573180;0.579763;0.583300
0.543375;0.543714;0.548381;0.550320;0.553197;0.553344;0.561151;0.559781;0.563275;0.569817;0.572566;0.574288;0.581057;0.580528;0.589291;0.593466;0.592766;0.599056;0.604712;0.603204;0.610783;0.612573;0.613770;0.619934;0.623762;0.624494;0.625406;0.632632;0.638140;0.640732;0.638455;0.644886;0.645251;0.649508;0.647627;0.652532;0.654346;0.650693;0.658149;0.657658;0.657141;0.659073;0.658628;0.659818;0.659996;0.657985;0.660487;0.660436;0.658563;0.653381;0.662635;0.656101;0.652497;0.648244;0.650534;0.646642;0.645835;0.649208;0.642878;0.644890;0.642082;0.641857;0.635162;0.638111;0.637009;0.631660;0.628862;0.627923;0.625739;0.624475;0.622810;0.620953;0.622481;0.621896;0.617999;0.616350;0.615465;0.620485;0.620681;0.622878;0.619770;0.616023;0.620634;0.624804;0.621509;0.626455;0.622356;0.623156;0.624953;0.630833;0.632453;0.637187;0.638607;0.638410;0.638562;0.640482;0.641453;0.647955;0.652571;0.649536
0.604282;0.611707;0.618669;0.628934;0.633324;0.639852;0.644413;0.651022;0.662715;0.672460;0.680239;0.684063;0.699386;0.707018;0.720096;0.729137;0.739849;0.751942;0.754233;0.764104;0.771649;0.779736;0.789885;0.801173;0.812364;0.814465;0.827782;0.831869;0.840204;0.848150;0.854553;0.860890;0.864845;0.872350;0.872084;0.879622;0.881108;0.887568;0.890006;0.892134;0.898303;0.894513;0.899308;0.897657;0.900802;0.893844;0.896331;0.900006;0.891501;0.888737;0.886956;0.881976;0.883317;0.875534;0.875884;0.871682;0.863933;0.862441;0.850192;0.846140;0.843928;0.835341;0.829025;0.822467;0.815317;0.813270;0.802173;0.798190;0.789160;0.779991;0.777019;0.765819;0.763045;0.756250;0.750737;0.736205;0.735912;0.727960;0.719531;0.712009;0.707783;0.701594;0.698048;0.689036;0.682706;0.677826;0.676517;0.665880;0.660506;0.653798;0.646041;0.646248;0.637299;0.637939;0.634112;0.627056;0.620657;0.614979;0.612076;0.605843
0.532691;0.533171;0.535614;0.542935;0.546560;0.550769;0.549670;0.553362;0.555499;0.561389;0.563841;0.565426;0.567624;0.569835;0.575837;0.579426;0.584579;0.580180;0.588973;0.592422;0.595071;0.603619;0.602026;0.601948;0.606547;0.611029;0.615961;0.618489;0.615313;0.626864;0.623572;0.629469;0.633099;0.634589;0.634950;0.631037;0.644116;0.639592;0.645001;0.646745;0.650744;0.645966;0.652706;0.649658;0.653404;0.656159;0.653511;0.652079;0.650616;0.655254;0.658287;0.655336;0.655818;0.658689;0.658576;0.662619;0.656927;0.657753;0.661119;0.653223;0.653008;0.653539;0.654265;0.657104;0.658487;0.652624;0.654202;0.654471;0.656907;0.656090;0.657161;0.657580;0.656195;0.662990;0.658575;0.659348;0.666686;0.660336;0.664369;0.668637;0.664211;0.669471;0.670008;0.670312;0.671881;0.680034;0.678521;0.682162;0.686185;0.683320;0.688701;0.688531;0.693338;0.695817;0.699718;0.701436;0.707814;0.712833;0.705653;0.715182
0.516295;0.517340;0.526864;0.522165;0.527271;0.528940;0.529662;0.530860;0.529260;0.534454;0.535425;0.533604;0.536409;0.535936;0.546338;0.545469;0.543191;0.548100;0.549483;0.552113;0.553130;0.561771;0.559416;0.563060;0.560766;0.560154;0.568783;0.576298;0.571259;0.575234;0.580180;0.579320;0.580370;0.582976;0.584698;0.586466;0.587369;0.587937;0.591509;0.592372;0.603755;0.599087;0.600522;0.598706;0.606306;0.607823;0.605602;0.606388;0.613305;0.614816;0.613155;0.617101;0.614646;0.621824;0.615428;0.619419;0.622938;0.626844;0.624199;0.629348;0.633286;0.629365;0.630918;0.631306;0.625301;0.638029;0.636253;0.635601;0.642727;0.642184;0.640960;0.645426;0.641289;0.643263;0.650587;0.649421;0.648928;0.654247;0.653663;0.652385;0.655437;0.654834;0.655223;0.657669;0.661941;0.660130;0.664147;0.670336;0.667116;0.664876;0.668168;0.671926;0.672396;0.675525;0.678055;0.676013;0.679838;0.683110;0.681666;0.682022
0.511715;0.513314;0.514905;0.511521;0.514496;0.513434;0.512295;0.519076;0.517616;0.518590;0.525424;0.518871;0.525175;0.524501;0.526425;0.531105;0.528026;0.528811;0.536080;0.532794;0.538239;0.545268;0.541282;0.542437;0.540806;0.545492;0.546415;0.548915;0.553428;0.559547;0.556037;0.557276;0.563461;0.566617;0.568649;0.572498;0.579902;0.580916;0.586489;0.586835;0.591701;0.592606;0.597043;0.600700;0.605940;0.609766;0.616707;0.617692;0.619587;0.628648;0.628923;0.636702;0.641342;0.641774;0.649551;0.654128;0.657576;0.666059;0.667254;0.672907;0.677672;0.686144;0.686735;0.691170;0.695145;0.700004;0.696956;0.707118;0.709416;0.711481;0.719866;0.721798;0.725781;0.725580;0.732954;0.729468;0.730818;0.733470;0.733894;0.741018;0.742430;0.739795;0.743759;0.744950;0.740864;0.741894;0.742219;0.738137;0.741067;0.740902;0.743588;0.739353;0.743821;0.740819;0.739467;0.734545;0.732719;0.731050;0.728303;0.728242
0.539977;0.546782;0.548173;0.546609;0.549135;0.553168;0.556460;0.564335;0.568670;0.571443;0.574273;0.582756;0.584585;0.588796;0.594518;0.598644;0.604479;0.609421;0.609749;0.612471;0.626283;0.626499;0.626072;0.637282;0.638509;0.649400;0.647335;0.654702;0.661192;0.666118;0.667221;0.670799;0.677845;0.685441;0.689181;0.691515;0.696159;0.702463;0.706751;0.709905;0.718609;0.723850;0.724189;0.722010;0.732570;0.733482;0.741170;0.744574;0.749960;0.747774;0.754726;0.761508;0.761857;0.761913;0.767321;0.771146;0.771232;0.782506;0.780395;0.786736;0.781631;0.782468;0.786122;0.789980;0.786987;0.789042;0.793148;0.800799;0.794883;0.798558;0.797594;0.799669;0.800168;0.797339;0.797205;0.794819;0.795230;0.788991;0.793011;0.792769;0.787745;0.784409;0.781887;0.781238;0.776831;0.773277;0.767380;0.762734;0.767488;0.759886;0.752357;0.749726;0.745965;0.736428;0.732101;0.728126;0.723062;0.715807;0.712102;0.705200
0.532992;0.539988;0.540613;0.547002;0.547667;0.551849;0.552585;0.556116;0.555255;0.559821;0.559999;0.563829;0.569946;0.571700;0.579437;0.584152;0.587807;0.588391;0.592117;0.597432;0.602267;0.602005;0.606248;0.609092;0.613691;0.623497;0.621192;0.627306;0.625640;0.629699;0.631737;0.637389;0.637458;0.637320;0.639357;0.639548;0.645424;0.645335;0.653815;0.650397;0.656084;0.652197;0.654182;0.658222;0.656852;0.663818;0.660784;0.665422;0.663908;0.664691;0.667661;0.669264;0.665284;0.662852;0.665208;0.664374;0.661441;0.666386;0.665158;0.659907;0.661825;0.667063;0.666022;0.667424;0.658437;0.664834;0.662290;0.665385;0.666067;0.668725;0.665603;0.666288;0.665427;0.673867;0.668543;0.666582;0.668373;0.670972;0.673716;0.671375;0.669800;0.674241;0.678146;0.670792;0.677168;0.682607;0.688520;0.686657;0.683727;0.688835;0.692117;0.697366;0.700494;0.701109;0.701377;0.703128;0.709890;0.711007;0.708976;0.711005
0.589691;0.598134;0.604567;0.601903;0.614895;0.619288;0.632347;0.638936;0.639836;0.651345;0.658057;0.663675;0.672008;0.682537;0.693331;0.701755;0.704651;0.713516;0.724605;0.730929;0.740019;0.745508;0.757969;0.765874;0.770872;0.773823;0.783886;0.788437;0.799278;0.807199;0.810279;0.819324;0.821833;0.830075;0.831848;0.841212;0.840636;0.843470;0.845169;0.848054;0.852282;0.856011;0.854170;0.857225;0.856734;0.858020;0.858270;0.859312;0.854833;0.850741;0.852952;0.847824;0.851652;0.842016;0.843848;0.839666;0.837972;0.832609;0.828429;0.826996;0.818607;0.814162;0.806092;0.808348;0.804759;0.794026;0.789628;0.784247;0.779378;0.775690;0.763236;0.765690;0.757293;0.751971;0.744774;0.742213;0.737419;0.732672;0.729319;0.724504;0.721756;0.715367;0.707843;0.704199;0.700942;0.698387;0.689677;0.689840;0.684924;0.678744;0.675341;0.676800;0.669061;0.661717;0.662355;0.653235;0.650902;0.650274;0.644484;0.647404
0.516589;0.515300;0.515243;0.518182;0.519660;0.520053;0.520547;0.520552;0.524849;0.525176;0.527427;0.527435;0.529473;0.531345;0.531939;0.531800;0.535624;0.542260;0.538596;0.538895;0.539791;0.543337;0.541724;0.544291;0.545574;0.550775;0.550062;0.547881;0.554195;0.555200;0.551082;0.548978;0.559238;0.555308;0.560930;0.555546;0.558575;0.560936;0.561286;0.562204;0.567680;0.563226;0.566202;0.561789;0.569143;0.571812;0.567215;0.570287;0.565724;0.566559;0.565083;0.568602;0.562930;0.568243;0.568449;0.566460;0.569187;0.570149;0.572670;0.569345;0.569585;0.571035;0.569233;0.572409;0.569218;0.569677;0.573652;0.567877;0.568137;0.567269;0.572457;0.570902;0.571489;0.568401;0.571151;0.568802;0.572105;0.566498;0.573423;0.575382;0.575050;0.573211;0.572700;0.575039;0.577574;0.580266;0.578042;0.581998;0.578414;0.586041;0.584923;0.590359;0.587775;0.585891;0.592267;0.595418;0.593602;0.595287;0.603986;0.602151
0.519531;0.524836;0.521060;0.523091;0.526824;0.525904;0.526347;0.530631;0.529742;0.537008;0.536892;0.541308;0.541836;0.543763;0.543740;0.546795;0.544985;0.550914;0.546578;0.552081;0.552944;0.554200;0.555326;0.558569;0.563285;0.555869;0.563624;0.565385;0.565961;0.570569;0.567410;0.569387;0.563322;0.568579;0.577034;0.572973;0.576122;0.574793;0.571123;0.575303;0.571034;0.573606;0.576299;0.575771;0.576361;0.576712;0.573354;0.576000;0.571553;0.571690;0.575943;0.571539;0.563789;0.570548;0.569596;0.565532;0.568167;0.568396;0.567630;0.564152;0.563214;0.563989;0.561539;0.554523;0.560933;0.558284;0.554874;0.556919;0.556170;0.546418;0.555509;0.547732;0.548398;0.549134;0.545524;0.546748;0.538251;0.542188;0.544142;0.541119;0.543512;0.538850;0.541931;0.540827;0.541928;0.538351;0.540382;0.537046;0.537724;0.544012;0.545269;0.542841;0.547013;0.545710;0.545135;0.544662;0.545455;0.552723;0.549317;0.552081
0.537365;0.539565;0.540472;0.541638;0.548211;0.547996;0.553838;0.553971;0.559487;0.560758;0.563848;0.568592;0.577470;0.577095;0.576765;0.584997;0.589471;0.593797;0.595894;0.597785;0.601416;0.606535;0.610554;0.615684;0.617732;0.624671;0.625764;0.632887;0.635370;0.639170;0.645651;0.648193;0.653733;0.659064;0.662994;0.666597;0.670203;0.670963;0.676420;0.678933;0.684979;0.683044;0.693764;0.698518;0.697334;0.695575;0.699792;0.708645;0.708878;0.710076;0.715204;0.717054;0.720489;0.722783;0.726380;0.728534;0.735292;0.732315;0.734047;0.735651;0.738640;0.736693;0.744268;0.743941;0.744971;0.742643;0.747532;0.746445;0.745547;0.747172;0.751949;0.747840;0.744812;0.749319;0.747096;0.749158;0.745396;0.741909;0.744936;0.742016;0.739881;0.736526;0.733401;0.734307;0.731539;0.730753;0.733181;0.723140;0.719404;0.714965;0.711426;0.708776;0.707387;0.699794;0.691825;0.691571;0.689811;0.686299;0.681644;0.674986
0.516176;0.513155;0.516994;0.518570;0.515234;0.514819;0.520765;0.520507;0.522946;0.520572;0.523296;0.525328;0.529479;0.529798;0.534468;0.528888;0.531359;0.534100;0.535319;0.541467;0.538813;0.540174;0.544727;0.538926;0.542944;0.548195;0.547132;0.551432;0.553105;0.557915;0.556312;0.556523;0.563599;0.563164;0.560997;0.562058;0.564944;0.563273;0.572469;0.566167;0.572020;0.568486;0.570617;0.573359;0.579668;0.576863;0.576794;0.577444;0.586663;0.582159;0.586364;0.588127;0.584865;0.588245;0.587721;0.593527;0.598442;0.594756;0.601672;0.599627;0.603913;0.602306;0.613948;0.613251;0.614628;0.619470;0.620584;0.619574;0.626976;0.630598;0.636877;0.643812;0.641927;0.645761;0.650772;0.655458;0.664241;0.666940;0.670104;0.672831;0.682351;0.689589;0.695332;0.698140;0.707374;0.711002;0.721815;0.723113;0.731725;0.740867;0.746482;0.757483;0.756957;0.771609;0.776105;0.780565;0.786879;0.792308;0.800701;0.809091
0.517219;0.517015;0.516864;0.515990;0.521536;0.519346;0.517553;0.522623;0.523745;0.526482;0.528183;0.523500;0.530069;0.535567;0.532722;0.531907;0.533826;0.539065;0.539253;0.543750;0.549864;0.546890;0.548913;0.555742;0.553000;0.553005;0.555034;0.561229;0.557590;0.562490;0.565348;0.571764;0.577770;0.577970;0.580920;0.579950;0.580805;0.584621;0.583210;0.593821;0.596304;0.595431;0.600253;0.604440;0.607516;0.608215;0.612010;0.613178;0.614003;0.621065;0.623909;0.629095;0.632021;0.633752;0.632687;0.634883;0.641498;0.645003;0.648487;0.647961;0.653432;0.656163;0.653595;0.661704;0.661343;0.667030;0.664936;0.669119;0.668565;0.673650;0.673196;0.674323;0.677439;0.680616;0.677919;0.674277;0.680340;0.680953;0.686813;0.679730;0.679557;0.681764;0.680062;0.681359;0.683692;0.680318;0.679598;0.675471;0.677382;0.676352;0.673184;0.670086;0.666339;0.670527;0.667209;0.660534;0.664452;0.664601;0.660618;0.661817
0.526151;0.531779;0.531382;0.529828;0.535716;0.540668;0.540287;0.543399;0.545105;0.546577;0.549241;0.548463;0.552796;0.553810;0.555307;0.561462;0.565828;0.566105;0.574984;0.573507;0.578851;0.581609;0.582293;0.586931;0.588439;0.589376;0.591465;0.597329;0.601242;0.599623;0.606210;0.604023;0.611400;0.608650;0.613342;0.615935;0.619862;0.620497;0.623946;0.621771;0.628885;0.624911;0.631271;0.632597;0.633788;0.627552;0.639157;0.638218;0.640181;0.641194;0.642848;0.641876;0.641193;0.645686;0.644717;0.647138;0.654338;0.650493;0.649830;0.649857;0.654550;0.653290;0.649843;0.655564;0.654661;0.657826;0.653652;0.656673;0.653622;0.654792;0.653991;0.657280;0.654033;0.656313;0.654887;0.651586;0.649882;0.648834;0.650841;0.648855;0.647294;0.647560;0.655347;0.647312;0.647080;0.649585;0.647649;0.644913;0.644780;0.638749;0.639619;0.641661;0.637750;0.639421;0.636526;0.633195;0.638039;0.637110;0.632046;0.634685
0.524656;0.527271;0.532682;0.528861;0.533095;0.540014;0.535804;0.535714;0.545329;0.542753;0.545027;0.549979;0.551345;0.552444;0.551853;0.561425;0.561729;0.564436;0.567780;0.566534;0.569633;0.571167;0.574004;0.581162;0.581107;0.581525;0.589070;0.588368;0.594230;0.592251;0.596643;0.601532;0.603888;0.602960;0.605369;0.608192;0.606725;0.616502;0.617467;0.615221;0.616088;0.616145;0.621107;0.621522;0.623385;0.621174;0.631746;0.629260;0.630909;0.634598;0.627981;0.631852;0.635453;0.637003;0.635986;0.638781;0.634617;0.640558;0.641410;0.639994;0.639467;0.640498;0.642629;0.643977;0.647908;0.639947;0.650034;0.646203;0.650374;0.645642;0.644447;0.650004;0.645400;0.649032;0.651552;0.646619;0.647148;0.646169;0.646290;0.650873;0.648063;0.647781;0.645022;0.647796;0.647310;0.647531;0.643290;0.645479;0.646822;0.647205;0.644760;0.646257;0.642972;0.646122;0.644355;0.642039;0.642990;0.642057;0.641114;0.644867
