1602;1607;1612;1617;1622;1627;1632;1637;1642;1647;1652;1657;1662;1667;1672;1677;1682;1687;1692;1697;1703;1708;1713;1718;1723;1728;1733;1738;1743;1748;1753;1758;1763;1768;1773;1778;1783;1788;1793;1798;1803;1808;1813;1818;1823;1828;1833;1838;1843;1848;1853;1858;1863;1868;1873;1878;1883;1888;1893;1898;1904;1909;1914;1919;1924;1929;1934;1939;1944;1949;1954;1959;1964;1969;1974;1979;1984;1989;1994;1999;2004;2009;2014;2019;2024;2029;2034;2039;2044;2049;2054;2059;2064;2069;2074;2079;2084;2089;2094;2100
0.668052;0.672951;0.667321;0.670718;0.673379;0.671463;0.671901;0.676509;0.678239;0.676572;0.680650;0.681665;0.680768;0.681482;0.686348;0.682660;0.686140;0.691022;0.689664;0.697190;0.696610;0.698143;0.701902;0.701414;0.705549;0.709571;0.713526;0.711626;0.719838;0.721308;0.724550;0.731336;0.731579;0.729135;0.741160;0.743196;0.744311;0.744095;0.751543;0.756346;0.754299;0.757175;0.761879;0.765559;0.762379;0.770139;0.766523;0.770428;0.772369;0.770176;0.775519;0.769058;0.773233;0.777401;0.775822;0.777947;0.776737;0.772885;0.768156;0.768079;0.768286;0.763937;0.763284;0.764469;0.758750;0.754321;0.750159;0.747163;0.737191;0.739472;0.734330;0.733984;0.726356;0.720697;0.717832;0.708129;0.698831;0.695360;0.687634;0.682697;0.678412;0.673633;0.666361;0.658337;0.653384;0.646125;0.642590;0.628825;0.626415;0.620150;0.618305;0.611460;0.605822;0.596307;0.592514;0.592813;0.584052;0.579423;0.582357;0.566762
0.656975;0.658821;0.654225;0.653196;0.654299;0.649752;0.648678;0.652289;0.646841;0.650108;0.649306;0.645182;0.647647;0.649561;0.644005;0.640631;0.640968;0.646828;0.645855;0.651845;0.649305;0.654651;0.658658;0.656317;0.655626;0.665330;0.662354;0.667450;0.668517;0.667683;0.672607;0.676409;0.678961;0.685971;0.687487;0.696746;0.697877;0.702007;0.705876;0.706181;0.711861;0.711412;0.721412;0.722413;0.725199;0.728972;0.734861;0.734576;0.739537;0.742741;0.746021;0.753040;0.746006;0.751071;0.751320;0.753991;0.751265;0.752575;0.755001;0.753111;0.751307;0.755756;0.747329;0.745778;0.747280;0.742610;0.739050;0.735741;0.734281;0.724945;0.726828;0.720646;0.716504;0.709473;0.709443;0.703597;0.694522;0.692958;0.686952;0.682576;0.672466;0.666850;0.662654;0.657471;0.653722;0.646718;0.634697;0.636990;0.629050;0.623944;0.618820;0.616209;0.610077;0.602285;0.597174;0.595120;0.586367;0.583105;0.581519;0.573115
0.745429;0.735759;0.734862;0.728278;0.723434;0.720191;0.712395;0.702924;0.698504;0.697208;0.694162;0.689987;0.682579;0.678637;0.671543;0.672194;0.669929;0.659809;0.663552;0.661709;0.659500;0.654353;0.650270;0.654615;0.648238;0.647831;0.648812;0.651021;0.649688;0.649718;0.650218;0.646363;0.646230;0.649949;0.651008;0.656838;0.650913;0.654096;0.655373;0.659810;0.654191;0.659414;0.659917;0.665794;0.667866;0.666704;0.666784;0.671836;0.674848;0.671239;0.671951;0.674117;0.672885;0.677613;0.673937;0.673289;0.672222;0.672792;0.676259;0.673284;0.677286;0.678212;0.673257;0.672238;0.666609;0.668448;0.663720;0.664330;0.665596;0.653908;0.657017;0.655046;0.648811;0.643786;0.643984;0.641876;0.634201;0.634984;0.632086;0.625451;0.623120;0.613586;0.607853;0.607957;0.601925;0.601748;0.597325;0.591996;0.586223;0.585513;0.581697;0.579884;0.577927;0.572181;0.563890;0.562797;0.557970;0.554184;0.554837;0.546714
0.641999;0.639416;0.634035;0.635367;0.631992;0.632948;0.628290;0.625354;0.631247;0.624212;0.625027;0.616577;0.619081;0.620152;0.618978;0.615067;0.617897;0.611418;0.606863;0.606419;0.605849;0.608398;0.606516;0.597898;0.602955;0.595843;0.591785;0.593096;0.590646;0.590343;0.588641;0.587127;0.585786;0.579708;0.581052;0.582623;0.575539;0.572144;0.576135;0.574310;0.569770;0.569086;0.567522;0.569933;0.559336;0.558288;0.562707;0.557265;0.552268;0.555973;0.549703;0.547134;0.548850;0.548415;0.547872;0.542453;0.536727;0.537224;0.540142;0.537526;0.531834;0.533544;0.535588;0.531885;0.534223;0.531362;0.530707;0.525788;0.525751;0.526395;0.523182;0.522345;0.524160;0.522838;0.518353;0.516875;0.515102;0.513642;0.519841;0.516786;0.516204;0.518963;0.511189;0.517110;0.510637;0.509045;0.511400;0.511176;0.509844;0.507926;0.509527;0.508013;0.506755;0.506282;0.507990;0.508769;0.506819;0.504040;0.509252;0.504613
0.711990;0.709883;0.705984;0.706479;0.702604;0.699936;0.690938;0.692594;0.687744;0.683327;0.682208;0.681147;0.676725;0.673328;0.675317;0.670599;0.669774;0.670077;0.667191;0.675859;0.667925;0.668722;0.666585;0.665091;0.665795;0.669320;0.667009;0.668233;0.672684;0.672091;0.671785;0.670464;0.673591;0.676757;0.682068;0.679061;0.684796;0.689294;0.693381;0.687347;0.692747;0.697439;0.698926;0.703609;0.703020;0.707056;0.703647;0.710229;0.714425;0.722049;0.711722;0.718963;0.716779;0.719310;0.719148;0.718962;0.719869;0.722289;0.720470;0.720590;0.713820;0.715294;0.715439;0.714511;0.709230;0.710633;0.701536;0.698350;0.695365;0.694862;0.693915;0.683724;0.685095;0.678265;0.673509;0.666721;0.664873;0.660907;0.655252;0.647770;0.646867;0.637254;0.638394;0.630701;0.625473;0.616200;0.615911;0.608426;0.606900;0.601300;0.596538;0.591498;0.581805;0.581906;0.578728;0.575992;0.566156;0.568147;0.563897;0.554640
0.601880;0.598022;0.600422;0.598825;0.598742;0.601907;0.598180;0.599415;0.600910;0.596629;0.597629;0.596019;0.595198;0.597171;0.598572;0.590319;0.593494;0.595954;0.590342;0.593451;0.596959;0.591941;0.591433;0.589428;0.589600;0.593481;0.590934;0.594444;0.586348;0.589750;0.589420;0.581634;0.588316;0.586402;0.584663;0.583229;0.578839;0.576015;0.583374;0.577937;0.582944;0.577487;0.574520;0.573139;0.574059;0.571653;0.571393;0.566553;0.569759;0.571792;0.564282;0.561427;0.566493;0.565949;0.563672;0.559159;0.558977;0.560729;0.559623;0.559318;0.554978;0.553432;0.555892;0.543534;0.545247;0.547678;0.550576;0.547910;0.545956;0.541337;0.545734;0.540146;0.540546;0.538453;0.540902;0.536123;0.535255;0.534596;0.530216;0.531859;0.526116;0.530970;0.526841;0.531895;0.530195;0.523159;0.523761;0.520841;0.520929;0.525287;0.523474;0.519202;0.517231;0.519286;0.518141;0.514938;0.515911;0.518451;0.512035;0.516151
0.743179;0.740951;0.740696;0.739400;0.736658;0.730098;0.724670;0.725997;0.723763;0.716077;0.712605;0.712900;0.712866;0.703314;0.702713;0.702588;0.699684;0.695227;0.696636;0.688250;0.691170;0.683861;0.680006;0.681276;0.677361;0.674292;0.674940;0.674078;0.677072;0.667910;0.670800;0.668236;0.666632;0.664021;0.666972;0.662413;0.665838;0.661246;0.666970;0.657657;0.658946;0.659305;0.655008;0.658441;0.656708;0.649622;0.653361;0.655568;0.649873;0.651492;0.648369;0.649188;0.643945;0.645507;0.644365;0.643775;0.644075;0.639718;0.636648;0.639907;0.631690;0.629007;0.635915;0.626025;0.622179;0.625897;0.621114;0.619440;0.621243;0.622317;0.610496;0.603485;0.615342;0.601157;0.602683;0.598289;0.596207;0.592908;0.591193;0.589798;0.587704;0.580732;0.577162;0.577272;0.578663;0.572970;0.568755;0.565396;0.559272;0.560255;0.557073;0.554054;0.555787;0.549294;0.548303;0.544335;0.549032;0.540893;0.541052;0.530139
0.643891;0.643831;0.639052;0.634934;0.634052;0.633169;0.630711;0.629363;0.625409;0.622725;0.622326;0.615015;0.615162;0.620184;0.613862;0.613042;0.612079;0.609847;0.608283;0.604386;0.605196;0.602905;0.607101;0.599153;0.599420;0.596108;0.590251;0.592240;0.591734;0.591863;0.586310;0.586176;0.585594;0.579748;0.585375;0.583760;0.575972;0.574924;0.579906;0.571314;0.575566;0.569029;0.570229;0.567434;0.565304;0.566237;0.565193;0.558784;0.560600;0.558733;0.556731;0.556662;0.553684;0.556563;0.549020;0.552066;0.551249;0.548402;0.543993;0.542621;0.546446;0.537108;0.540788;0.543292;0.536828;0.537725;0.537206;0.538585;0.532999;0.529321;0.530051;0.531412;0.528120;0.522413;0.522053;0.522792;0.516069;0.520487;0.521644;0.515855;0.516720;0.520729;0.512370;0.512678;0.515183;0.511490;0.508558;0.511026;0.506584;0.510404;0.507121;0.505390;0.504014;0.496688;0.501033;0.498788;0.505123;0.502891;0.499113;0.502197
0.576932;0.573084;0.580228;0.575674;0.579378;0.583661;0.584163;0.583679;0.582933;0.585602;0.588524;0.593382;0.596590;0.597957;0.604483;0.613582;0.608348;0.613211;0.613718;0.622991;0.627741;0.637859;0.638385;0.641051;0.657135;0.654637;0.666903;0.665525;0.674605;0.680343;0.694584;0.694928;0.703117;0.707005;0.717216;0.718890;0.728788;0.740908;0.743926;0.752044;0.755854;0.761800;0.767413;0.780782;0.784219;0.793459;0.792633;0.803200;0.803512;0.811300;0.811678;0.813734;0.821171;0.824181;0.829687;0.827239;0.827587;0.830994;0.832898;0.827473;0.832275;0.831282;0.827377;0.820488;0.821716;0.816191;0.816438;0.811036;0.802915;0.803271;0.797971;0.796889;0.788797;0.780395;0.773252;0.761775;0.761923;0.753211;0.745187;0.740050;0.734512;0.724899;0.710803;0.712061;0.703037;0.695306;0.676631;0.677469;0.670068;0.658325;0.652495;0.650150;0.640855;0.634741;0.619386;0.617880;0.607354;0.606643;0.602110;0.592170
0.757880;0.753764;0.755501;0.750012;0.749652;0.745147;0.747069;0.741236;0.738824;0.739718;0.737172;0.731788;0.730237;0.729213;0.724954;0.725575;0.724723;0.715767;0.713486;0.713199;0.712522;0.713534;0.703171;0.701283;0.700276;0.696565;0.695939;0.690980;0.694604;0.686351;0.684952;0.682764;0.683211;0.676136;0.676041;0.675199;0.672562;0.666533;0.666562;0.657394;0.659875;0.658333;0.655668;0.650092;0.647969;0.646537;0.641609;0.639550;0.638575;0.640326;0.633395;0.632195;0.629270;0.624415;0.630683;0.623002;0.617443;0.616805;0.609801;0.610302;0.607615;0.603774;0.605723;0.601518;0.599139;0.596583;0.595558;0.590691;0.586338;0.586674;0.580715;0.577913;0.576412;0.573105;0.571418;0.569631;0.566615;0.564636;0.562633;0.557206;0.554180;0.549067;0.547635;0.543041;0.543852;0.539040;0.539903;0.536726;0.533735;0.534492;0.526366;0.526662;0.523238;0.520585;0.520999;0.521348;0.521162;0.519512;0.514481;0.510508
0.625479;0.617440;0.616381;0.609557;0.608857;0.608664;0.595970;0.604145;0.593523;0.589550;0.587875;0.588655;0.582515;0.583067;0.574208;0.575542;0.574700;0.570460;0.565949;0.564317;0.565544;0.561531;0.558991;0.561812;0.558865;0.559278;0.551557;0.554757;0.551365;0.549663;0.549233;0.545881;0.548268;0.551243;0.547960;0.545775;0.548135;0.543742;0.541399;0.542299;0.543385;0.545503;0.542786;0.542865;0.540914;0.545028;0.544235;0.541162;0.543604;0.547006;0.544871;0.542140;0.541114;0.541114;0.542702;0.538052;0.545458;0.543676;0.539009;0.540171;0.537328;0.536719;0.535726;0.539596;0.537024;0.537875;0.535661;0.541078;0.531014;0.531580;0.534643;0.530542;0.532205;0.531613;0.529784;0.533086;0.527343;0.528342;0.524681;0.518828;0.521087;0.521786;0.521866;0.521552;0.522030;0.519199;0.517487;0.515428;0.512587;0.521462;0.514311;0.514333;0.513486;0.508572;0.508662;0.508243;0.509421;0.505415;0.509828;0.506108
0.663134;0.666689;0.666234;0.670853;0.664136;0.665400;0.667917;0.666642;0.666921;0.666225;0.666316;0.662353;0.662173;0.659587;0.664593;0.658432;0.662209;0.659654;0.658578;0.658231;0.652056;0.654843;0.659369;0.652344;0.651501;0.645365;0.647600;0.644627;0.643674;0.640224;0.637056;0.631364;0.628833;0.634422;0.629063;0.624784;0.624637;0.626181;0.619795;0.613919;0.612590;0.610848;0.606144;0.604277;0.603355;0.600753;0.593744;0.597756;0.591527;0.591959;0.586133;0.586527;0.575266;0.573556;0.575474;0.573346;0.567000;0.571206;0.562902;0.565192;0.560324;0.560797;0.558401;0.552855;0.550747;0.551782;0.547874;0.545140;0.546834;0.543223;0.540976;0.539616;0.536999;0.535569;0.530691;0.535322;0.530237;0.527500;0.526801;0.525140;0.523483;0.519688;0.521369;0.522433;0.520386;0.513296;0.511936;0.515957;0.509607;0.513767;0.511838;0.511796;0.513352;0.506814;0.512054;0.503750;0.505611;0.507824;0.501301;0.500065
0.669610;0.681644;0.682268;0.682997;0.685298;0.687839;0.693062;0.693577;0.696823;0.699122;0.702484;0.704584;0.707955;0.708700;0.709317;0.715302;0.715173;0.721562;0.723431;0.719575;0.723713;0.730641;0.730768;0.733381;0.734144;0.735939;0.733871;0.741490;0.740191;0.740613;0.745434;0.747676;0.751706;0.749668;0.750411;0.747437;0.756436;0.756839;0.752588;0.756714;0.756214;0.756708;0.756775;0.756494;0.758516;0.756274;0.757358;0.753326;0.759366;0.756952;0.754769;0.752594;0.753741;0.751442;0.748230;0.745869;0.749129;0.744418;0.738666;0.741737;0.741169;0.735748;0.722319;0.727251;0.722550;0.716212;0.712801;0.709379;0.703700;0.698843;0.695165;0.690656;0.687856;0.682702;0.682472;0.673270;0.661631;0.660957;0.651087;0.645148;0.642937;0.635740;0.635325;0.631652;0.624695;0.621114;0.614754;0.605845;0.597711;0.596514;0.587094;0.584736;0.577429;0.576159;0.570549;0.568112;0.563229;0.561740;0.554010;0.552807
0.664700;0.654102;0.651593;0.653201;0.643228;0.639215;0.635694;0.638005;0.631283;0.632500;0.629199;0.621472;0.620805;0.618232;0.617333;0.614380;0.616953;0.611215;0.609519;0.605878;0.610054;0.612043;0.609696;0.605973;0.612679;0.611408;0.613740;0.618118;0.615363;0.615892;0.615342;0.625281;0.624230;0.619575;0.624032;0.625681;0.630849;0.632144;0.632285;0.637782;0.635318;0.643902;0.642531;0.648285;0.644375;0.649612;0.647049;0.655992;0.656910;0.659187;0.658075;0.665303;0.664520;0.661949;0.667655;0.668342;0.666519;0.661027;0.666968;0.664011;0.664415;0.665742;0.661896;0.662380;0.661740;0.659238;0.662544;0.656930;0.657604;0.648817;0.653352;0.645075;0.645948;0.643946;0.639531;0.632064;0.627351;0.631148;0.622657;0.623395;0.614750;0.611744;0.609241;0.601138;0.598742;0.598329;0.592760;0.590641;0.585404;0.584356;0.573380;0.579233;0.572883;0.566892;0.566134;0.563172;0.557111;0.555232;0.548945;0.555827
0.741878;0.740782;0.746722;0.738553;0.742206;0.735956;0.738508;0.739349;0.736818;0.733673;0.729742;0.727903;0.726049;0.719710;0.721298;0.719394;0.718042;0.715387;0.708542;0.710955;0.700972;0.703580;0.697037;0.696551;0.691885;0.688983;0.681313;0.683624;0.679246;0.672442;0.670090;0.666744;0.663280;0.654741;0.653802;0.647723;0.643663;0.640166;0.635723;0.626453;0.621594;0.619177;0.621189;0.612531;0.603340;0.601067;0.597419;0.593558;0.592767;0.582391;0.576106;0.574175;0.573234;0.566675;0.564377;0.560844;0.562722;0.554565;0.547708;0.547486;0.548799;0.539904;0.542990;0.535887;0.533081;0.532271;0.531256;0.527634;0.527258;0.522834;0.526519;0.525531;0.519579;0.511169;0.516431;0.513815;0.513436;0.513843;0.511790;0.506228;0.515497;0.504699;0.511521;0.503463;0.507643;0.508079;0.509343;0.508560;0.500569;0.502551;0.505677;0.497896;0.503799;0.501197;0.499352;0.496400;0.500309;0.500790;0.498074;0.500596
0.747667;0.749117;0.746169;0.749835;0.750947;0.751162;0.754916;0.751152;0.750761;0.749073;0.749804;0.747150;0.750480;0.746881;0.747427;0.749732;0.746069;0.746570;0.742734;0.739515;0.737991;0.732175;0.732422;0.728102;0.722416;0.718633;0.717615;0.715570;0.709592;0.708278;0.702609;0.700380;0.691338;0.685141;0.682762;0.675899;0.671469;0.663738;0.661331;0.658545;0.656208;0.643570;0.637897;0.636092;0.634212;0.626238;0.622440;0.614869;0.613497;0.605513;0.604123;0.599349;0.595689;0.592876;0.580113;0.580166;0.577529;0.563936;0.569212;0.563421;0.557210;0.560557;0.556347;0.552908;0.549470;0.547500;0.540956;0.539538;0.535183;0.537850;0.529982;0.527082;0.530581;0.527204;0.523938;0.525089;0.517876;0.522375;0.521746;0.515528;0.515867;0.511581;0.509442;0.516838;0.511702;0.508645;0.508882;0.509755;0.508840;0.509753;0.507210;0.508342;0.508647;0.509796;0.508886;0.506760;0.507306;0.504048;0.506987;0.505840
0.762439;0.766380;0.754800;0.753474;0.750766;0.747820;0.748557;0.739807;0.735868;0.731961;0.733013;0.725649;0.724894;0.718090;0.715305;0.713466;0.708385;0.709041;0.700730;0.700289;0.697500;0.691906;0.689458;0.689486;0.685063;0.682486;0.678728;0.681084;0.679272;0.676046;0.666486;0.668461;0.666817;0.664656;0.659350;0.659082;0.656622;0.652377;0.652596;0.647558;0.643125;0.643104;0.643419;0.641177;0.640594;0.637871;0.640964;0.634491;0.634057;0.636412;0.626254;0.627147;0.626928;0.626834;0.626491;0.622109;0.620569;0.620194;0.618184;0.611104;0.609833;0.606771;0.609098;0.609222;0.605078;0.597122;0.599612;0.599250;0.593400;0.590764;0.590644;0.585355;0.582289;0.580153;0.583279;0.576209;0.567299;0.570091;0.566411;0.565761;0.563807;0.562169;0.560258;0.554214;0.554481;0.550190;0.549271;0.548091;0.540551;0.541288;0.540090;0.539687;0.534692;0.535211;0.530088;0.529214;0.527891;0.523644;0.524063;0.526209
0.661336;0.660810;0.665575;0.666927;0.674259;0.671775;0.676172;0.680724;0.678779;0.680236;0.684329;0.688134;0.691640;0.696349;0.697237;0.695656;0.700853;0.700090;0.703412;0.699733;0.708285;0.707084;0.715717;0.706275;0.706706;0.704459;0.706619;0.705700;0.709083;0.705087;0.709776;0.705963;0.710688;0.705972;0.702257;0.700440;0.700631;0.700143;0.697662;0.695698;0.693334;0.695229;0.693715;0.688309;0.687668;0.681508;0.682915;0.680434;0.678679;0.678723;0.674175;0.670760;0.670217;0.667736;0.664802;0.653411;0.655468;0.657156;0.652237;0.646939;0.646854;0.646908;0.641633;0.637347;0.636723;0.633613;0.627561;0.623999;0.619791;0.615735;0.614270;0.609426;0.609430;0.601418;0.599138;0.597456;0.594310;0.591073;0.585900;0.587645;0.589109;0.578803;0.578215;0.575469;0.568429;0.566071;0.565172;0.562393;0.559318;0.559698;0.558847;0.554899;0.552485;0.551161;0.546191;0.545673;0.544681;0.540701;0.533887;0.540502
0.841957;0.856652;0.863068;0.870265;0.880366;0.885573;0.891316;0.901073;0.907963;0.912636;0.920505;0.925491;0.929077;0.932537;0.939147;0.943021;0.939713;0.941494;0.951137;0.944171;0.948558;0.946648;0.944232;0.939913;0.937956;0.931898;0.934840;0.924679;0.920211;0.912095;0.908408;0.901382;0.895962;0.886180;0.879968;0.873894;0.862340;0.856151;0.842119;0.832092;0.826257;0.815854;0.803761;0.794933;0.786508;0.773065;0.760697;0.753057;0.746650;0.734120;0.725541;0.713065;0.706196;0.699747;0.684556;0.678129;0.672114;0.657522;0.655304;0.642307;0.639188;0.635526;0.623705;0.619276;0.615376;0.608327;0.596954;0.589293;0.582965;0.579826;0.580015;0.571202;0.568993;0.562776;0.563812;0.554070;0.554809;0.551807;0.548168;0.539188;0.538339;0.536645;0.533745;0.532358;0.529000;0.529079;0.523856;0.523970;0.525642;0.517502;0.514376;0.517419;0.519011;0.513217;0.514818;0.512305;0.507617;0.509593;0.510143;0.512016
0.560080;0.561196;0.566160;0.562062;0.565133;0.571358;0.571572;0.571607;0.570429;0.577863;0.579930;0.577570;0.585933;0.588669;0.584550;0.594446;0.597590;0.603514;0.608263;0.612680;0.618833;0.618181;0.623153;0.630028;0.634120;0.638419;0.647384;0.654291;0.661053;0.662692;0.673980;0.677517;0.686148;0.685914;0.696008;0.706150;0.713274;0.722401;0.730490;0.732932;0.740780;0.741910;0.753834;0.756320;0.758572;0.765959;0.770374;0.781674;0.781917;0.786828;0.790178;0.792842;0.796120;0.804494;0.799598;0.800714;0.808964;0.801568;0.809576;0.810732;0.805021;0.807104;0.805279;0.799861;0.802526;0.800508;0.791016;0.792841;0.789272;0.781970;0.777981;0.766531;0.767557;0.766875;0.753357;0.750425;0.741589;0.737603;0.729733;0.721898;0.715701;0.710702;0.698774;0.694804;0.687568;0.678007;0.666848;0.658436;0.651557;0.649655;0.645660;0.633009;0.625569;0.619541;0.614769;0.607301;0.600557;0.595012;0.589458;0.582432
0.593149;0.595878;0.602591;0.604167;0.608438;0.609553;0.614520;0.617869;0.620644;0.620888;0.628110;0.631450;0.634376;0.643602;0.646323;0.657192;0.659875;0.659757;0.664040;0.668477;0.679786;0.686899;0.691421;0.698501;0.702130;0.707747;0.716221;0.723379;0.729375;0.736302;0.744620;0.752791;0.756222;0.762608;0.768712;0.776512;0.781738;0.790166;0.795865;0.803787;0.812284;0.814509;0.816769;0.826784;0.832190;0.836264;0.841049;0.845966;0.848895;0.853582;0.861574;0.855909;0.865951;0.857858;0.864956;0.860119;0.866920;0.862930;0.867138;0.867233;0.863473;0.864433;0.859172;0.855521;0.850202;0.849429;0.845132;0.834622;0.831275;0.832295;0.819682;0.815038;0.809313;0.801884;0.793533;0.786518;0.779056;0.765889;0.761759;0.755052;0.746575;0.733753;0.728503;0.717281;0.708937;0.703260;0.693541;0.685362;0.673688;0.669672;0.657426;0.651382;0.642553;0.638205;0.628896;0.617834;0.611624;0.609481;0.600687;0.597866
0.658517;0.660685;0.654591;0.651245;0.649352;0.644626;0.646469;0.639066;0.641103;0.637133;0.634116;0.636901;0.625337;0.629184;0.627426;0.623532;0.624616;0.617326;0.624013;0.618080;0.612168;0.614348;0.611521;0.609702;0.608896;0.611023;0.603510;0.602935;0.604822;0.603936;0.600607;0.599720;0.604222;0.596783;0.596189;0.592321;0.594779;0.596126;0.590558;0.592326;0.594905;0.589847;0.592903;0.593983;0.585403;0.585153;0.584458;0.588722;0.587424;0.582438;0.581960;0.584906;0.584900;0.584858;0.583726;0.578802;0.580059;0.578262;0.576440;0.576287;0.567893;0.573996;0.572914;0.571200;0.572834;0.571426;0.564567;0.565870;0.566467;0.560712;0.560652;0.553785;0.557412;0.553638;0.545172;0.547000;0.549799;0.546354;0.543489;0.544151;0.540674;0.537398;0.540815;0.539799;0.538512;0.535643;0.529889;0.529337;0.529205;0.531111;0.525752;0.527803;0.522965;0.519543;0.520626;0.517812;0.522035;0.515876;0.510519;0.513370
0.705652;0.700459;0.698254;0.694977;0.686840;0.686213;0.678227;0.679062;0.676298;0.669588;0.666614;0.661801;0.664929;0.654613;0.653403;0.647469;0.645318;0.642414;0.637219;0.635518;0.635150;0.630941;0.619636;0.627290;0.616327;0.613620;0.605668;0.608500;0.602890;0.604270;0.597506;0.593746;0.595125;0.592747;0.584595;0.586111;0.579491;0.573509;0.577707;0.573515;0.568782;0.565277;0.563261;0.563119;0.557249;0.557032;0.553422;0.550515;0.550636;0.546779;0.541772;0.545300;0.534595;0.538476;0.531070;0.535410;0.529733;0.531690;0.525049;0.531391;0.528092;0.525069;0.524022;0.518377;0.516329;0.520129;0.516878;0.517656;0.520323;0.516705;0.516408;0.514127;0.511935;0.511409;0.511491;0.515449;0.508695;0.509373;0.510958;0.508300;0.505762;0.506382;0.509231;0.509969;0.504369;0.503491;0.511227;0.505093;0.508648;0.509510;0.505048;0.505953;0.504842;0.508695;0.503350;0.504458;0.504586;0.505651;0.504113;0.501961
0.614154;0.614027;0.612439;0.608927;0.606895;0.600716;0.601200;0.601031;0.593759;0.592884;0.592486;0.591014;0.589516;0.592238;0.590935;0.588625;0.586577;0.591144;0.588602;0.584235;0.589417;0.586075;0.592298;0.590304;0.593124;0.591414;0.593453;0.591877;0.600481;0.603458;0.602598;0.606042;0.603524;0.610479;0.615001;0.619025;0.623793;0.622225;0.627030;0.626022;0.633474;0.634145;0.641775;0.640290;0.648397;0.645853;0.651093;0.648870;0.656024;0.655951;0.656166;0.663698;0.660331;0.662964;0.664233;0.665274;0.667424;0.664173;0.671540;0.663468;0.670236;0.665225;0.669036;0.668349;0.666598;0.659506;0.661231;0.658689;0.659778;0.650161;0.652028;0.647375;0.638383;0.643365;0.641349;0.636069;0.638336;0.628457;0.622896;0.619229;0.617123;0.613000;0.608782;0.604177;0.594192;0.595280;0.591157;0.592109;0.582730;0.582028;0.575608;0.574345;0.573090;0.564908;0.559560;0.565501;0.556593;0.555104;0.548218;0.548809
0.746180;0.746449;0.743480;0.743421;0.743720;0.744225;0.748862;0.744584;0.747957;0.747011;0.747983;0.746715;0.747158;0.742913;0.744750;0.745833;0.745134;0.743864;0.742727;0.740967;0.743514;0.742043;0.740180;0.745387;0.746880;0.740462;0.743894;0.744855;0.744584;0.746674;0.740029;0.743913;0.742064;0.737623;0.742990;0.739570;0.740948;0.742495;0.736561;0.740602;0.738301;0.734756;0.732800;0.740230;0.734942;0.734245;0.734983;0.732024;0.728208;0.728128;0.727206;0.730413;0.726159;0.721798;0.722445;0.719988;0.717586;0.714111;0.710501;0.711776;0.701589;0.704107;0.696239;0.695623;0.694136;0.687809;0.684224;0.681332;0.676091;0.674627;0.674117;0.663685;0.661166;0.656757;0.652999;0.644393;0.642874;0.637357;0.637140;0.629782;0.627969;0.621636;0.612683;0.606582;0.608886;0.602623;0.596447;0.590891;0.587010;0.592013;0.576517;0.575812;0.571366;0.569724;0.569064;0.560637;0.556997;0.549037;0.555085;0.543709
0.636804;0.637972;0.637002;0.636737;0.639891;0.641708;0.646034;0.643619;0.644036;0.651042;0.652034;0.657902;0.650549;0.656112;0.657167;0.666915;0.664715;0.665708;0.671127;0.672282;0.672416;0.673047;0.678840;0.678356;0.681720;0.684204;0.686520;0.692351;0.692029;0.693640;0.690100;0.699060;0.698620;0.697533;0.705767;0.700437;0.707461;0.713628;0.708555;0.711342;0.714069;0.711724;0.713771;0.716507;0.716016;0.719660;0.715660;0.718308;0.719131;0.717405;0.722458;0.718246;0.714077;0.715694;0.717585;0.712075;0.718279;0.712788;0.707206;0.706637;0.708491;0.704667;0.702298;0.696305;0.693529;0.688933;0.691021;0.683711;0.679810;0.680625;0.675672;0.671712;0.663103;0.664761;0.656167;0.652648;0.644510;0.647985;0.641156;0.633770;0.629664;0.625861;0.619055;0.614010;0.611863;0.606681;0.595614;0.594748;0.589391;0.586579;0.577965;0.574817;0.568333;0.571885;0.566936;0.560245;0.560581;0.556129;0.549549;0.545900
0.661541;0.661744;0.661051;0.660179;0.664142;0.657763;0.661383;0.668140;0.666872;0.665932;0.665787;0.667435;0.668138;0.666109;0.670941;0.667238;0.667232;0.665607;0.666530;0.669850;0.669244;0.669279;0.670686;0.679420;0.671750;0.669678;0.671122;0.670872;0.670038;0.671841;0.670647;0.670353;0.673913;0.676486;0.671813;0.670235;0.671272;0.673018;0.672624;0.672345;0.677859;0.668774;0.674586;0.670108;0.672711;0.672997;0.667141;0.669367;0.669033;0.666739;0.667956;0.663119;0.664156;0.659175;0.661337;0.657467;0.656467;0.652080;0.652360;0.650067;0.647092;0.647683;0.645281;0.644835;0.639755;0.641189;0.639660;0.636772;0.626650;0.620798;0.623632;0.619479;0.615086;0.614709;0.607451;0.604895;0.598449;0.593866;0.597155;0.587299;0.584935;0.585926;0.582903;0.573214;0.576594;0.571873;0.567915;0.562132;0.559424;0.555908;0.550913;0.553310;0.547102;0.543696;0.541286;0.543462;0.534666;0.536932;0.528814;0.525911
0.605192;0.608948;0.615009;0.607213;0.612688;0.612592;0.610851;0.620677;0.620426;0.614820;0.615912;0.618374;0.626608;0.632184;0.628284;0.631073;0.641707;0.638820;0.646623;0.645695;0.653395;0.656838;0.662049;0.669287;0.668282;0.682201;0.680610;0.674322;0.689741;0.691355;0.697615;0.707768;0.705853;0.715739;0.726963;0.731361;0.735465;0.743687;0.742203;0.749260;0.756832;0.763084;0.764119;0.769366;0.781661;0.781610;0.784731;0.786312;0.791918;0.795730;0.803583;0.801307;0.803320;0.809084;0.811797;0.811204;0.811317;0.808378;0.816174;0.813522;0.810557;0.809859;0.805112;0.803020;0.803318;0.796794;0.794839;0.793011;0.788173;0.779474;0.780307;0.769691;0.768537;0.758208;0.755401;0.746423;0.741150;0.731721;0.727436;0.719959;0.712561;0.708216;0.698354;0.695865;0.685364;0.675720;0.668655;0.664091;0.655403;0.646906;0.640770;0.639885;0.631899;0.621939;0.615458;0.610614;0.600294;0.597786;0.598804;0.587982
0.624287;0.618936;0.617754;0.618186;0.610024;0.606263;0.608329;0.604598;0.601793;0.599813;0.600355;0.595189;0.593791;0.587778;0.587709;0.584244;0.583289;0.578488;0.580395;0.574949;0.579065;0.573465;0.572812;0.568693;0.568660;0.566697;0.565056;0.561289;0.562342;0.559507;0.560781;0.557734;0.554588;0.552228;0.550820;0.550627;0.546505;0.549091;0.547509;0.546798;0.537387;0.540217;0.537370;0.533137;0.539173;0.534269;0.530760;0.531201;0.530667;0.530809;0.531516;0.528703;0.526950;0.523675;0.523827;0.526430;0.523412;0.520386;0.521520;0.523414;0.512773;0.516045;0.516989;0.516406;0.517066;0.519064;0.511216;0.514839;0.511986;0.512678;0.511603;0.510237;0.509999;0.508927;0.506572;0.511345;0.508802;0.503555;0.503281;0.505170;0.509224;0.510244;0.507738;0.504411;0.502889;0.503306;0.503282;0.506855;0.501461;0.498799;0.503888;0.499281;0.499816;0.500673;0.501958;0.503335;0.500458;0.500634;0.503443;0.497154
0.641570;0.645978;0.642521;0.639117;0.641118;0.640573;0.640253;0.638743;0.641517;0.639888;0.637388;0.639851;0.641535;0.640322;0.638541;0.636945;0.644985;0.641933;0.641517;0.646764;0.643854;0.642737;0.643599;0.643748;0.647595;0.647806;0.650419;0.645345;0.647622;0.652421;0.646922;0.650722;0.655918;0.649755;0.657630;0.647998;0.649936;0.654821;0.654761;0.652552;0.654436;0.657398;0.660500;0.657117;0.652743;0.659765;0.657825;0.664127;0.660935;0.655969;0.657024;0.662181;0.655212;0.657210;0.652920;0.658928;0.648908;0.650788;0.654022;0.650310;0.648946;0.648147;0.647614;0.642186;0.642612;0.637876;0.636070;0.636593;0.629945;0.625544;0.629658;0.618733;0.617811;0.621724;0.613088;0.609954;0.611660;0.606636;0.603728;0.595011;0.593728;0.583955;0.584933;0.585731;0.581807;0.569165;0.573234;0.570672;0.563913;0.560605;0.556518;0.559067;0.553207;0.549580;0.543988;0.546474;0.542714;0.540335;0.535126;0.537177
0.594735;0.593715;0.591219;0.594121;0.592501;0.597836;0.598505;0.601419;0.596101;0.603947;0.603061;0.605051;0.609149;0.610648;0.615854;0.617748;0.623394;0.630811;0.630739;0.638759;0.642815;0.644518;0.646579;0.651787;0.661260;0.659950;0.670446;0.669778;0.676656;0.687884;0.692625;0.697574;0.702998;0.705764;0.719997;0.721706;0.726711;0.732644;0.739400;0.742828;0.751390;0.755482;0.760375;0.765571;0.770265;0.776181;0.780230;0.785044;0.788060;0.792251;0.798544;0.800577;0.799385;0.799552;0.805833;0.806435;0.804538;0.811832;0.806459;0.807251;0.809322;0.808082;0.803218;0.805195;0.799629;0.793375;0.790675;0.789282;0.784065;0.777270;0.773509;0.767745;0.762131;0.757738;0.749881;0.745970;0.739206;0.730787;0.725841;0.718892;0.706648;0.706535;0.694335;0.689450;0.682377;0.673742;0.667443;0.655613;0.655687;0.643502;0.637359;0.627735;0.624983;0.619107;0.612643;0.605481;0.599043;0.591914;0.585777;0.581834
0.662940;0.662428;0.670107;0.678565;0.682509;0.682810;0.692340;0.691807;0.697924;0.703543;0.705130;0.707503;0.716283;0.719487;0.721379;0.723398;0.729995;0.733567;0.736861;0.749230;0.749643;0.750937;0.755426;0.760642;0.766347;0.767999;0.774709;0.779308;0.786640;0.791583;0.797287;0.796019;0.807105;0.805797;0.808712;0.812903;0.814677;0.818297;0.820786;0.827840;0.826721;0.828311;0.839601;0.841517;0.842362;0.843055;0.848005;0.848674;0.851998;0.848634;0.854352;0.852590;0.854022;0.852975;0.849900;0.852942;0.849303;0.846720;0.847311;0.844324;0.844391;0.839411;0.831921;0.829169;0.825729;0.818055;0.817395;0.811606;0.807611;0.800205;0.790967;0.787053;0.780694;0.771980;0.767498;0.758737;0.750432;0.744309;0.739108;0.727423;0.718571;0.714052;0.706944;0.697727;0.688901;0.682683;0.675062;0.669977;0.659259;0.650776;0.646014;0.636229;0.631334;0.623281;0.612839;0.620524;0.601093;0.599459;0.593345;0.593243
0.582928;0.587445;0.592471;0.593704;0.599882;0.605399;0.609304;0.624831;0.622588;0.628330;0.631150;0.641205;0.642669;0.648997;0.657991;0.660727;0.670045;0.675982;0.683156;0.692932;0.698623;0.704188;0.712762;0.724372;0.728222;0.737688;0.740803;0.749903;0.766221;0.772180;0.779386;0.791883;0.794548;0.804104;0.810952;0.827528;0.825619;0.836434;0.845472;0.854550;0.860271;0.870536;0.872851;0.879628;0.893345;0.896384;0.898717;0.901941;0.912697;0.914869;0.914977;0.923846;0.927594;0.931009;0.936998;0.934897;0.932874;0.935848;0.931779;0.933691;0.937982;0.928627;0.927495;0.921246;0.922139;0.916086;0.913801;0.909406;0.900279;0.894814;0.891389;0.876802;0.870751;0.861800;0.850377;0.846114;0.832458;0.818397;0.819636;0.808910;0.795129;0.789019;0.779740;0.766335;0.752153;0.745047;0.738096;0.728158;0.716901;0.708281;0.693466;0.683097;0.680135;0.672155;0.664837;0.650224;0.645001;0.631518;0.625396;0.620434
0.651754;0.661515;0.658957;0.665994;0.669505;0.666021;0.675264;0.673776;0.675025;0.681121;0.684899;0.687794;0.689657;0.697195;0.696090;0.695538;0.698752;0.700744;0.707258;0.703338;0.704955;0.709643;0.713386;0.711647;0.711665;0.719734;0.718752;0.719787;0.720210;0.718668;0.724068;0.721523;0.721982;0.725062;0.721658;0.726729;0.726911;0.723621;0.724730;0.722672;0.725271;0.722933;0.719076;0.723673;0.719051;0.723195;0.721423;0.716138;0.717549;0.711394;0.716784;0.710093;0.708272;0.706968;0.711461;0.700481;0.702217;0.703280;0.702003;0.691785;0.690058;0.695386;0.686252;0.686087;0.679654;0.676778;0.672103;0.669396;0.662594;0.659364;0.658359;0.652651;0.648016;0.640633;0.636942;0.635561;0.630435;0.623596;0.616911;0.614383;0.610941;0.605214;0.606066;0.602097;0.596236;0.591037;0.577900;0.587956;0.578935;0.575722;0.567228;0.562722;0.559572;0.557059;0.552202;0.551754;0.545661;0.540229;0.540037;0.537021
0.609030;0.601987;0.594007;0.593972;0.590395;0.585936;0.579223;0.580213;0.576034;0.570360;0.572922;0.564742;0.564709;0.560121;0.555900;0.558995;0.556433;0.548599;0.550229;0.550532;0.547710;0.540571;0.543286;0.536566;0.539768;0.536628;0.534699;0.531401;0.531588;0.528087;0.533383;0.528594;0.527840;0.524561;0.526368;0.526435;0.522218;0.525334;0.519651;0.522199;0.521059;0.524670;0.518814;0.516610;0.517173;0.516567;0.516563;0.517442;0.517016;0.515329;0.515424;0.512166;0.508210;0.514341;0.509849;0.512725;0.513143;0.509354;0.511056;0.507841;0.508630;0.508662;0.506797;0.506688;0.510123;0.510698;0.507247;0.509661;0.511475;0.501375;0.507226;0.509267;0.499031;0.504032;0.503457;0.505726;0.502650;0.502469;0.505222;0.508101;0.506956;0.500754;0.503657;0.500307;0.505761;0.498522;0.502296;0.499590;0.500143;0.500943;0.497378;0.498357;0.502136;0.493580;0.496734;0.502432;0.492827;0.500160;0.501537;0.496531
0.718552;0.719711;0.721318;0.723825;0.728537;0.730568;0.728778;0.737311;0.740787;0.735802;0.740255;0.740712;0.744597;0.746047;0.753672;0.751848;0.751917;0.752729;0.751637;0.758557;0.755526;0.753025;0.755193;0.759429;0.758128;0.755972;0.752402;0.749179;0.752466;0.752636;0.749264;0.742810;0.750193;0.738525;0.737452;0.738993;0.737102;0.733330;0.729994;0.729280;0.725722;0.722151;0.714038;0.715034;0.709959;0.708872;0.709066;0.704189;0.696733;0.690260;0.693092;0.684313;0.680453;0.681968;0.679332;0.677888;0.673120;0.667336;0.659596;0.658266;0.658488;0.653848;0.643083;0.640301;0.639065;0.637366;0.635808;0.629005;0.624923;0.625265;0.615728;0.612886;0.614862;0.606040;0.601778;0.601836;0.596695;0.599108;0.594369;0.591310;0.586398;0.588218;0.573662;0.570129;0.569537;0.566759;0.561860;0.566151;0.558300;0.557920;0.554271;0.551004;0.551165;0.544875;0.541301;0.542074;0.536212;0.534935;0.535725;0.532835
0.687299;0.686508;0.690784;0.693164;0.695430;0.696689;0.691585;0.697946;0.702657;0.701679;0.705467;0.705009;0.704736;0.711830;0.715239;0.710181;0.715102;0.716881;0.713584;0.717942;0.718922;0.723007;0.725508;0.725468;0.728707;0.728790;0.727928;0.734571;0.735115;0.736848;0.737279;0.739628;0.740077;0.738933;0.741683;0.742431;0.745500;0.742605;0.750781;0.750504;0.745704;0.750814;0.747814;0.749245;0.749463;0.752807;0.752931;0.749107;0.749820;0.748102;0.748805;0.748591;0.746358;0.742697;0.743662;0.741749;0.739369;0.739688;0.735554;0.730468;0.730784;0.724819;0.727422;0.726077;0.717991;0.709002;0.711285;0.714553;0.704871;0.697294;0.691805;0.688576;0.682184;0.679748;0.672095;0.668937;0.664907;0.657544;0.651710;0.650921;0.645637;0.634717;0.636039;0.625899;0.621912;0.620419;0.607775;0.601543;0.603120;0.598435;0.587317;0.585484;0.581512;0.579921;0.577275;0.570280;0.567417;0.563860;0.560063;0.551780
0.724883;0.726048;0.726318;0.721943;0.719239;0.723071;0.714983;0.714060;0.712376;0.711209;0.714160;0.709482;0.708502;0.705969;0.707248;0.701615;0.706934;0.701212;0.701920;0.703748;0.701013;0.701122;0.694598;0.697347;0.700518;0.698262;0.703549;0.698756;0.695692;0.701261;0.700077;0.697821;0.693095;0.705790;0.701211;0.699958;0.699407;0.702810;0.703849;0.701913;0.699267;0.699901;0.707940;0.701779;0.704425;0.702566;0.705662;0.703324;0.701734;0.701817;0.706171;0.700933;0.702566;0.702729;0.699208;0.700444;0.694691;0.697532;0.694592;0.692820;0.692105;0.686882;0.686542;0.684576;0.684508;0.677165;0.674014;0.670540;0.668596;0.668687;0.663761;0.655140;0.651403;0.653872;0.644795;0.642005;0.637138;0.633151;0.630418;0.622148;0.620180;0.616748;0.610840;0.603834;0.601039;0.596742;0.598918;0.587837;0.584022;0.582471;0.578876;0.574343;0.567794;0.568910;0.561707;0.559057;0.553885;0.557237;0.550395;0.545721
0.701353;0.695191;0.686534;0.688458;0.682111;0.675952;0.668308;0.664442;0.663479;0.651324;0.646573;0.647177;0.636348;0.638029;0.633653;0.630165;0.621513;0.623858;0.619034;0.614367;0.616297;0.614134;0.611375;0.607078;0.608893;0.604286;0.599410;0.595271;0.600668;0.603871;0.594619;0.595989;0.594197;0.598773;0.591192;0.592226;0.594152;0.592742;0.596048;0.596200;0.593437;0.594302;0.594341;0.595291;0.597913;0.601345;0.597921;0.599614;0.601523;0.603168;0.604010;0.600812;0.600303;0.606297;0.601415;0.605491;0.605255;0.602366;0.605016;0.598519;0.599147;0.601081;0.595865;0.596971;0.590276;0.595954;0.593647;0.595036;0.591527;0.585795;0.589164;0.583032;0.585519;0.580311;0.581897;0.581842;0.571233;0.573262;0.571627;0.568675;0.566240;0.563395;0.567148;0.566269;0.561338;0.554974;0.556305;0.554239;0.552164;0.546192;0.546314;0.544778;0.539783;0.542604;0.541997;0.533777;0.533134;0.531630;0.525656;0.526876
0.717186;0.720207;0.722367;0.726498;0.721369;0.727726;0.730549;0.733438;0.733492;0.734131;0.736982;0.738229;0.744970;0.745149;0.750597;0.746080;0.743254;0.744748;0.749695;0.744922;0.747952;0.746390;0.746541;0.749060;0.742735;0.744102;0.748245;0.749972;0.744767;0.741055;0.743227;0.738870;0.735963;0.731951;0.730501;0.726969;0.727784;0.721084;0.720325;0.715143;0.713159;0.716201;0.711687;0.705050;0.701554;0.701277;0.697892;0.690571;0.689813;0.684780;0.673208;0.674310;0.671660;0.673567;0.668087;0.665557;0.664152;0.658199;0.654334;0.648374;0.647367;0.644921;0.638974;0.637813;0.635904;0.629403;0.623567;0.618089;0.615373;0.614826;0.615076;0.608400;0.604812;0.602507;0.599050;0.591868;0.589650;0.583622;0.580241;0.581536;0.576582;0.572255;0.571685;0.565759;0.564118;0.562746;0.553700;0.557599;0.551101;0.553115;0.552376;0.547590;0.544001;0.540852;0.538551;0.535815;0.535740;0.531861;0.530905;0.530094
0.639010;0.636544;0.630847;0.635384;0.624423;0.624847;0.621563;0.625383;0.619048;0.612695;0.608851;0.601652;0.608858;0.604441;0.605428;0.597448;0.593601;0.591184;0.587295;0.592413;0.587400;0.581267;0.582468;0.582742;0.574605;0.573899;0.573276;0.573831;0.572637;0.564972;0.564222;0.561830;0.561676;0.556384;0.562085;0.552334;0.552596;0.551554;0.551214;0.550569;0.544059;0.543161;0.542022;0.544068;0.543021;0.538913;0.538200;0.532539;0.532812;0.531171;0.535065;0.530196;0.523586;0.523036;0.523503;0.522967;0.522100;0.525447;0.516219;0.517134;0.521999;0.512742;0.513510;0.509144;0.511180;0.514378;0.515498;0.508283;0.506684;0.511154;0.509064;0.507213;0.506416;0.509245;0.507339;0.503156;0.507740;0.502674;0.503589;0.501662;0.504174;0.500174;0.498823;0.503001;0.496505;0.500597;0.501429;0.498676;0.501967;0.498874;0.498169;0.495564;0.496843;0.496970;0.494639;0.496513;0.498705;0.494902;0.494550;0.494703
0.608203;0.608999;0.615717;0.616065;0.618076;0.623678;0.625520;0.633170;0.632551;0.638472;0.640353;0.644110;0.652154;0.654421;0.656985;0.665793;0.668018;0.672751;0.677144;0.681660;0.684559;0.688942;0.699159;0.704818;0.708665;0.714720;0.727684;0.727465;0.737697;0.741824;0.748188;0.755251;0.762708;0.766204;0.772994;0.782687;0.787581;0.792589;0.799379;0.809028;0.809298;0.815640;0.824337;0.827013;0.825549;0.836069;0.841856;0.850889;0.851639;0.855794;0.858790;0.856142;0.862965;0.862356;0.862842;0.868218;0.863840;0.863893;0.869352;0.863028;0.861397;0.862474;0.856028;0.854275;0.851541;0.842963;0.842341;0.839572;0.833321;0.831442;0.820057;0.814014;0.806893;0.803609;0.794080;0.785267;0.778568;0.770889;0.763737;0.754293;0.743449;0.740730;0.729823;0.721946;0.715525;0.706136;0.702284;0.684891;0.681358;0.674069;0.660011;0.655637;0.652888;0.644057;0.630878;0.627440;0.621136;0.613146;0.607624;0.603008
0.553696;0.559036;0.558548;0.563547;0.567220;0.572891;0.573410;0.578787;0.583266;0.586920;0.588423;0.595152;0.594246;0.597986;0.610115;0.614924;0.619416;0.623744;0.635157;0.636308;0.647575;0.648172;0.657128;0.663981;0.671460;0.677494;0.686029;0.696413;0.709985;0.713523;0.720627;0.729898;0.742087;0.750606;0.754753;0.768388;0.771810;0.781323;0.794307;0.797722;0.808380;0.815080;0.825682;0.833510;0.840123;0.850870;0.850235;0.858580;0.864651;0.871804;0.878129;0.878117;0.886946;0.888721;0.889953;0.892324;0.898851;0.899717;0.898103;0.895534;0.894427;0.892212;0.891390;0.887333;0.886611;0.879058;0.882253;0.878589;0.865848;0.866133;0.856484;0.846947;0.843416;0.838153;0.828055;0.819034;0.810463;0.802657;0.791893;0.781702;0.772525;0.763357;0.755144;0.746150;0.740332;0.730133;0.720569;0.709539;0.699294;0.690521;0.679920;0.671332;0.665727;0.657063;0.641426;0.640750;0.626437;0.625515;0.616182;0.611786
0.672569;0.669352;0.662938;0.658862;0.657327;0.659222;0.651225;0.647244;0.646284;0.645508;0.641357;0.637218;0.636151;0.629307;0.632054;0.630210;0.628148;0.624064;0.620895;0.622759;0.628029;0.620514;0.621245;0.620422;0.626875;0.622477;0.625724;0.626721;0.624941;0.629116;0.629055;0.629177;0.629606;0.637880;0.636839;0.641120;0.643144;0.644616;0.648167;0.649081;0.649736;0.651575;0.653606;0.655562;0.661544;0.667006;0.665177;0.666003;0.672300;0.672010;0.674347;0.676263;0.677987;0.675526;0.680924;0.684168;0.677997;0.677134;0.674931;0.675999;0.676977;0.680829;0.678673;0.678333;0.674994;0.673056;0.675300;0.667750;0.665345;0.665487;0.665514;0.656236;0.659416;0.654493;0.651052;0.649851;0.638915;0.640071;0.636122;0.631742;0.627076;0.629250;0.623149;0.613410;0.615257;0.609489;0.605223;0.599941;0.594620;0.592180;0.586944;0.581937;0.581260;0.576177;0.575538;0.570468;0.565811;0.565614;0.562555;0.559716
0.813412;0.826865;0.828425;0.839132;0.838569;0.846870;0.853747;0.853054;0.860240;0.866380;0.874912;0.876032;0.877095;0.880806;0.883203;0.881263;0.884659;0.887155;0.883899;0.884107;0.883269;0.882527;0.882239;0.874540;0.881856;0.872889;0.864315;0.865110;0.858721;0.856706;0.849900;0.841572;0.836233;0.832995;0.824860;0.816355;0.806629;0.797211;0.794535;0.780483;0.778495;0.763659;0.757761;0.751127;0.743217;0.735731;0.726144;0.718146;0.711862;0.702965;0.690491;0.683354;0.677915;0.666138;0.662955;0.656396;0.646053;0.641375;0.634506;0.627706;0.617634;0.608866;0.603789;0.599712;0.597283;0.590897;0.582795;0.581579;0.573848;0.568804;0.561754;0.562848;0.560266;0.554973;0.549081;0.552478;0.545202;0.542209;0.532955;0.537998;0.537076;0.533534;0.533294;0.527078;0.525354;0.522510;0.522483;0.522328;0.520844;0.516095;0.518231;0.513058;0.518889;0.518559;0.514330;0.511378;0.509400;0.515109;0.506370;0.509127
0.654150;0.659231;0.653535;0.656706;0.650272;0.649082;0.648640;0.647673;0.647734;0.651082;0.647911;0.648294;0.651335;0.641432;0.645582;0.649677;0.644883;0.649503;0.650109;0.653090;0.649576;0.659471;0.657858;0.666609;0.661077;0.666147;0.668900;0.672153;0.674394;0.678850;0.681812;0.689257;0.688293;0.693208;0.693093;0.701225;0.711104;0.708819;0.716828;0.720779;0.718962;0.728455;0.728252;0.730449;0.739813;0.738243;0.748500;0.745543;0.752101;0.755142;0.753603;0.758426;0.762837;0.766234;0.769188;0.764429;0.761967;0.767347;0.765165;0.761511;0.761380;0.762748;0.756927;0.750714;0.751952;0.753972;0.750184;0.744539;0.743669;0.741109;0.732116;0.727587;0.720220;0.717820;0.716757;0.707863;0.701155;0.695031;0.688150;0.684694;0.675909;0.671839;0.664039;0.657791;0.654028;0.648481;0.637597;0.635473;0.630315;0.617336;0.614957;0.612297;0.606980;0.598112;0.592609;0.585952;0.581384;0.574565;0.577703;0.565645
0.638180;0.634673;0.633023;0.634956;0.627327;0.630595;0.635416;0.631808;0.630672;0.632068;0.630361;0.635294;0.635152;0.636240;0.639123;0.641792;0.636514;0.638998;0.644908;0.644457;0.649098;0.653781;0.653365;0.653515;0.656314;0.661217;0.661537;0.668465;0.668534;0.676282;0.680668;0.685672;0.686324;0.694913;0.692871;0.695933;0.703959;0.704404;0.710259;0.717311;0.722258;0.720154;0.726552;0.731686;0.734683;0.736462;0.736407;0.744522;0.744063;0.752772;0.748756;0.757835;0.749384;0.752194;0.750185;0.759966;0.757933;0.756987;0.755985;0.751682;0.755080;0.749473;0.751866;0.751550;0.742682;0.746163;0.737329;0.737741;0.734036;0.731419;0.724691;0.725870;0.715865;0.714005;0.704034;0.703788;0.694618;0.690461;0.687951;0.674962;0.674308;0.665860;0.660487;0.652280;0.645886;0.640377;0.630444;0.630853;0.624207;0.618897;0.610056;0.603816;0.598065;0.591461;0.587698;0.581198;0.576360;0.571630;0.568740;0.566106
0.636288;0.645148;0.640345;0.645128;0.643254;0.646273;0.642634;0.643740;0.645469;0.643882;0.648862;0.642859;0.649095;0.652944;0.653805;0.653107;0.654104;0.657163;0.656002;0.657207;0.665096;0.665537;0.672807;0.673392;0.678097;0.675821;0.682837;0.682815;0.685278;0.692350;0.695605;0.697445;0.702691;0.706317;0.711436;0.710557;0.714397;0.722410;0.718507;0.724602;0.730709;0.731819;0.733680;0.739419;0.743904;0.740528;0.750174;0.746493;0.752914;0.752183;0.760376;0.752971;0.753979;0.761319;0.759066;0.756260;0.759532;0.755422;0.752063;0.753215;0.753557;0.753376;0.748314;0.747889;0.742985;0.743833;0.734644;0.736212;0.726568;0.725972;0.722307;0.714168;0.713751;0.706955;0.701470;0.697226;0.694231;0.681826;0.676709;0.672437;0.673086;0.670370;0.656651;0.651989;0.643016;0.639610;0.631115;0.624381;0.619548;0.616320;0.610399;0.601598;0.596981;0.591653;0.584302;0.582503;0.576745;0.572598;0.565310;0.562638
