1100;1105;1110;1115;1120;1125;1130;1135;1140;1145;1150;1155;1160;1165;1170;1175;1180;1185;1190;1195;1200;1205;1210;1215;1220;1225;1230;1235;1240;1245;1250;1255;1260;1265;1270;1275;1280;1285;1290;1295;1301;1306;1311;1316;1321;1326;1331;1336;1341;1346;1351;1356;1361;1366;1371;1376;1381;1386;1391;1396;1401;1406;1411;1416;1421;1426;1431;1436;1441;1446;1451;1456;1461;1466;1471;1476;1481;1486;1491;1496;1502;1507;1512;1517;1522;1527;1532;1537;1542;1547;1552;1557;1562;1567;1572;1577;1582;1587;1592;1597;1602;1607;1612;1617;1622;1627;1632;1637;1642;1647;1652;1657;1662;1667;1672;1677;1682;1687;1692;1697;1703;1708;1713;1718;1723;1728;1733;1738;1743;1748;1753;1758;1763;1768;1773;1778;1783;1788;1793;1798;1803;1808;1813;1818;1823;1828;1833;1838;1843;1848;1853;1858;1863;1868;1873;1878;1883;1888;1893;1898;1904;1909;1914;1919;1924;1929;1934;1939;1944;1949;1954;1959;1964;1969;1974;1979;1984;1989;1994;1999;2004;2009;2014;2019;2024;2029;2034;2039;2044;2049;2054;2059;2064;2069;2074;2079;2084;2089;2094;2100
0.542445;0.546902;0.550542;0.550983;0.553568;0.557384;0.559129;0.560016;0.572437;0.570197;0.575535;0.579826;0.585118;0.586179;0.594672;0.595286;0.598277;0.603861;0.603333;0.604688;0.612183;0.617515;0.619865;0.620591;0.624535;0.628323;0.635131;0.634096;0.644609;0.642463;0.644353;0.646174;0.645968;0.648159;0.652992;0.656964;0.657063;0.659801;0.658211;0.656905;0.653861;0.653539;0.655995;0.658152;0.658716;0.655216;0.650595;0.654226;0.648821;0.651294;0.649242;0.642533;0.644326;0.642246;0.640560;0.633123;0.627843;0.629297;0.628378;0.619336;0.620025;0.612854;0.616763;0.606921;0.606007;0.607646;0.604120;0.597824;0.598347;0.594996;0.589199;0.589628;0.583388;0.584476;0.577315;0.577683;0.575404;0.574129;0.571149;0.572379;0.570405;0.573059;0.570308;0.569855;0.570589;0.563412;0.562500;0.569969;0.564368;0.564986;0.562888;0.568325;0.567796;0.569186;0.567806;0.569551;0.571207;0.570044;0.580094;0.574641;0.580070;0.578806;0.584370;0.587649;0.588464;0.592546;0.593357;0.599677;0.601893;0.601853;0.607996;0.614472;0.609928;0.618343;0.626300;0.622164;0.630245;0.632718;0.637154;0.643914;0.646840;0.651830;0.653543;0.660003;0.664384;0.674112;0.673224;0.681813;0.689317;0.693771;0.696456;0.701274;0.708517;0.712127;0.717248;0.720928;0.726103;0.733911;0.734577;0.743849;0.743474;0.748341;0.750816;0.756005;0.766938;0.762738;0.765786;0.769305;0.773545;0.774692;0.779513;0.782508;0.784474;0.783203;0.784116;0.781585;0.786378;0.784790;0.782909;0.784065;0.780081;0.778347;0.777206;0.772069;0.770603;0.767354;0.765404;0.765324;0.755900;0.751486;0.748525;0.741538;0.738031;0.729015;0.725945;0.719043;0.710302;0.703617;0.701094;0.699225;0.680502;0.679255;0.676154;0.665245;0.660282;0.651795;0.642085;0.638940;0.634355;0.626653;0.621916;0.617322;0.605924;0.597971;0.595354;0.587230;0.582715;0.578494;0.572417;0.570048
0.518902;0.523506;0.524523;0.524859;0.531638;0.529431;0.536014;0.536221;0.537311;0.536015;0.537486;0.544214;0.544959;0.550766;0.549420;0.553939;0.557163;0.555400;0.559834;0.566200;0.565382;0.569366;0.566801;0.574275;0.579454;0.583551;0.582200;0.588169;0.594367;0.594553;0.598949;0.602636;0.604906;0.611366;0.614232;0.614264;0.615884;0.620646;0.625141;0.631520;0.635114;0.635218;0.642408;0.643671;0.652072;0.652155;0.655975;0.661550;0.669094;0.669212;0.678488;0.675569;0.687491;0.687848;0.687684;0.696085;0.698991;0.707709;0.710538;0.718104;0.719484;0.721326;0.725992;0.728354;0.731457;0.739145;0.741413;0.743690;0.747971;0.751515;0.755428;0.753686;0.761529;0.762113;0.765058;0.768120;0.771050;0.775042;0.777559;0.782026;0.780553;0.777763;0.783027;0.785236;0.784198;0.785566;0.787728;0.796645;0.789844;0.793058;0.793448;0.794907;0.795349;0.795492;0.799081;0.792166;0.796357;0.792648;0.792630;0.792012;0.793362;0.789110;0.788730;0.786729;0.790147;0.785891;0.783012;0.788828;0.778105;0.778174;0.776859;0.775447;0.775998;0.773038;0.769736;0.765967;0.764871;0.759968;0.764585;0.756016;0.752185;0.749715;0.745408;0.744228;0.739424;0.735616;0.729783;0.729691;0.723470;0.719327;0.715085;0.711225;0.709647;0.707943;0.698809;0.693451;0.689635;0.684607;0.681971;0.673358;0.667402;0.669163;0.661252;0.659729;0.652962;0.650193;0.645842;0.646180;0.635049;0.635374;0.629689;0.627634;0.619220;0.617123;0.608938;0.607988;0.606438;0.596838;0.600334;0.592613;0.589832;0.588558;0.580657;0.576506;0.580648;0.577302;0.570040;0.569473;0.564505;0.559023;0.556947;0.561528;0.556862;0.554554;0.552967;0.546828;0.547279;0.548367;0.543505;0.541719;0.534753;0.538473;0.537638;0.539287;0.534663;0.530781;0.532113;0.535411;0.524005;0.528814;0.524649;0.527570;0.522253;0.522466;0.521259;0.518829;0.520491;0.518487;0.518648;0.517834
0.529253;0.523087;0.531930;0.531854;0.537970;0.544517;0.544290;0.547737;0.545567;0.550510;0.553231;0.553418;0.559632;0.556549;0.561839;0.567319;0.564742;0.566054;0.574070;0.575235;0.580549;0.579767;0.586776;0.587102;0.591112;0.593942;0.600594;0.601013;0.601099;0.604142;0.611744;0.607359;0.612351;0.612537;0.614405;0.616873;0.622282;0.620818;0.615442;0.623663;0.623911;0.624196;0.627571;0.623766;0.628305;0.623578;0.629249;0.633617;0.628625;0.631293;0.633563;0.629511;0.630703;0.633598;0.630130;0.633336;0.631217;0.632531;0.627418;0.632521;0.631197;0.630141;0.628890;0.625260;0.625404;0.624129;0.623436;0.630879;0.629791;0.626253;0.628761;0.628419;0.627601;0.623975;0.629626;0.622569;0.628058;0.628644;0.627281;0.625235;0.631691;0.633197;0.633269;0.631953;0.639394;0.634746;0.642074;0.637894;0.647467;0.645139;0.646757;0.645574;0.650049;0.647201;0.649051;0.651546;0.653970;0.658615;0.665424;0.659617;0.663299;0.669034;0.665525;0.676541;0.673701;0.680094;0.682270;0.682079;0.686097;0.684393;0.693331;0.692225;0.692995;0.699351;0.691628;0.704558;0.702232;0.704672;0.709973;0.712173;0.713374;0.713454;0.717437;0.719197;0.717951;0.719217;0.722089;0.728947;0.726439;0.729009;0.733217;0.734406;0.733448;0.737665;0.734806;0.734471;0.737930;0.740656;0.737590;0.735157;0.740896;0.737344;0.741324;0.740645;0.742342;0.745061;0.740261;0.743685;0.735613;0.738421;0.737671;0.740721;0.733961;0.735461;0.729363;0.729247;0.725554;0.729308;0.727944;0.723866;0.716316;0.720320;0.714755;0.712830;0.705790;0.701183;0.696144;0.694981;0.697337;0.683878;0.677841;0.678974;0.674357;0.668141;0.660259;0.657254;0.656295;0.648894;0.644977;0.640163;0.633933;0.627754;0.624159;0.622159;0.610839;0.606934;0.599732;0.595520;0.593381;0.585955;0.584017;0.582544;0.574530;0.567373;0.567538;0.563202;0.561833;0.554820;0.551908;0.548164
0.536307;0.541439;0.546574;0.547670;0.555212;0.552473;0.558551;0.557735;0.561552;0.564904;0.568568;0.577697;0.577313;0.576904;0.585531;0.585948;0.591126;0.595193;0.602428;0.601525;0.611993;0.613839;0.618995;0.622606;0.626139;0.624496;0.628065;0.638314;0.639521;0.641005;0.646608;0.654716;0.655012;0.660542;0.658108;0.668234;0.669502;0.672016;0.671568;0.678430;0.681142;0.681541;0.682956;0.686163;0.684799;0.690892;0.691111;0.690445;0.693889;0.699575;0.696051;0.697174;0.702839;0.703148;0.699318;0.706075;0.706251;0.703355;0.709213;0.704712;0.711554;0.713642;0.706058;0.708525;0.707169;0.708003;0.709057;0.709371;0.705829;0.704976;0.709600;0.705872;0.708214;0.705557;0.700864;0.703205;0.696533;0.700251;0.698650;0.693609;0.691830;0.694351;0.688159;0.687767;0.684370;0.682478;0.680011;0.673853;0.675577;0.674341;0.668744;0.669440;0.665544;0.660069;0.653380;0.653051;0.651451;0.653062;0.646440;0.641882;0.640193;0.637859;0.636799;0.633599;0.633583;0.630171;0.625465;0.624265;0.620258;0.622468;0.618683;0.623565;0.615853;0.618574;0.615746;0.613558;0.615405;0.616727;0.618907;0.614537;0.619198;0.622681;0.624196;0.623812;0.622051;0.625683;0.622245;0.628128;0.635767;0.638246;0.637264;0.633029;0.642267;0.644588;0.648740;0.650982;0.657628;0.661479;0.664256;0.667965;0.670479;0.672151;0.672727;0.680279;0.679618;0.687254;0.687876;0.690779;0.692526;0.694693;0.697538;0.697331;0.704976;0.701009;0.703302;0.701261;0.702662;0.706391;0.705697;0.705467;0.700387;0.706064;0.703886;0.704299;0.698269;0.693703;0.694830;0.690555;0.690531;0.685344;0.686520;0.683809;0.676365;0.677501;0.666986;0.663297;0.656448;0.658467;0.656157;0.643951;0.640819;0.636211;0.634745;0.624619;0.624924;0.617141;0.613215;0.606889;0.604657;0.601990;0.589338;0.590901;0.591137;0.580378;0.577716;0.569415;0.570500;0.566086;0.558401;0.559601
0.520905;0.524752;0.519800;0.535762;0.526237;0.531166;0.536510;0.534959;0.536340;0.542664;0.543609;0.542718;0.547574;0.547874;0.551188;0.553626;0.556135;0.561305;0.561818;0.565894;0.564638;0.571600;0.574418;0.574322;0.580819;0.581191;0.586234;0.588622;0.593998;0.594552;0.601271;0.603822;0.603434;0.611234;0.609902;0.613703;0.617439;0.625108;0.625821;0.630582;0.630199;0.633534;0.639744;0.640846;0.644164;0.652775;0.651082;0.657896;0.660975;0.662105;0.665490;0.667256;0.678091;0.681353;0.681850;0.687045;0.686585;0.689234;0.694503;0.698230;0.700680;0.704735;0.709749;0.709642;0.708533;0.717302;0.717754;0.721644;0.727865;0.728015;0.726343;0.733055;0.733463;0.733791;0.734943;0.742488;0.744609;0.741621;0.744736;0.744276;0.747539;0.748446;0.748312;0.750045;0.754418;0.750051;0.753533;0.749074;0.755737;0.752552;0.750102;0.751785;0.752782;0.749821;0.751950;0.753679;0.748873;0.746162;0.748926;0.746104;0.743474;0.740682;0.743361;0.744925;0.740052;0.740458;0.737823;0.738653;0.735126;0.740202;0.730047;0.735183;0.731626;0.732497;0.727750;0.728244;0.723256;0.720948;0.718335;0.716686;0.718744;0.715956;0.713920;0.708528;0.711672;0.707398;0.705588;0.703601;0.701742;0.700142;0.697408;0.694244;0.694078;0.694828;0.684916;0.685928;0.681870;0.682476;0.680157;0.680946;0.677522;0.676938;0.677414;0.672346;0.669988;0.666471;0.661391;0.658693;0.658615;0.652300;0.657702;0.648472;0.647571;0.651094;0.644394;0.647356;0.638918;0.634848;0.632601;0.628968;0.626051;0.624765;0.620867;0.624150;0.613596;0.615251;0.619141;0.607295;0.602440;0.605153;0.596814;0.598655;0.595197;0.591996;0.590159;0.583571;0.578797;0.576718;0.575034;0.570471;0.569239;0.564434;0.567012;0.556046;0.559322;0.554588;0.554040;0.550534;0.547761;0.545682;0.542902;0.538793;0.536277;0.534447;0.536071;0.531201;0.530391;0.528787;0.525109;0.529353
0.525363;0.530796;0.531732;0.532831;0.538734;0.539552;0.543653;0.543988;0.545996;0.548878;0.554436;0.554513;0.553379;0.556742;0.561221;0.568504;0.568751;0.572113;0.573693;0.576819;0.584030;0.584353;0.590336;0.589870;0.594054;0.598790;0.599678;0.597488;0.607786;0.605859;0.609147;0.615936;0.621916;0.619685;0.622803;0.622702;0.623989;0.629635;0.633781;0.636199;0.639807;0.641935;0.646411;0.647157;0.652097;0.652308;0.652074;0.656767;0.658674;0.658992;0.663173;0.667032;0.667609;0.673071;0.668353;0.672488;0.677591;0.677250;0.679599;0.683926;0.685470;0.685058;0.689136;0.692359;0.693291;0.693637;0.699848;0.699389;0.701279;0.703306;0.708472;0.706986;0.703844;0.709244;0.709257;0.715471;0.717518;0.720674;0.717124;0.723817;0.726063;0.726985;0.730508;0.730480;0.739111;0.732740;0.738080;0.740680;0.743243;0.744759;0.750075;0.748224;0.748386;0.751854;0.754653;0.757139;0.754829;0.757567;0.762523;0.765307;0.763858;0.761833;0.764424;0.769364;0.767858;0.769340;0.773682;0.772825;0.771969;0.772980;0.772150;0.776553;0.773580;0.770313;0.772070;0.772263;0.765280;0.768910;0.773354;0.765114;0.765863;0.766179;0.765415;0.763163;0.760719;0.752153;0.750745;0.749705;0.745496;0.748073;0.744894;0.742060;0.736640;0.729746;0.728966;0.719498;0.723088;0.713425;0.710812;0.704838;0.705935;0.698603;0.686555;0.686838;0.683430;0.676497;0.676203;0.671289;0.665813;0.666992;0.656592;0.656748;0.649827;0.642083;0.639191;0.637727;0.633323;0.627739;0.627465;0.613133;0.614921;0.615639;0.608206;0.606558;0.604885;0.595507;0.593035;0.586380;0.587416;0.584989;0.580557;0.580352;0.573336;0.573122;0.572807;0.565497;0.564991;0.564536;0.559588;0.558217;0.553986;0.551650;0.553997;0.555117;0.544106;0.543319;0.543386;0.539321;0.538949;0.538113;0.529062;0.531743;0.523757;0.531712;0.529239;0.528847;0.523557;0.528133;0.520830;0.520079
0.579663;0.580195;0.586969;0.591983;0.596728;0.602886;0.612919;0.616004;0.622499;0.630700;0.640692;0.643378;0.649374;0.654055;0.664449;0.669954;0.673495;0.682437;0.690465;0.699139;0.707859;0.714594;0.717718;0.730655;0.729775;0.743199;0.747199;0.750787;0.760236;0.763369;0.769005;0.774329;0.782439;0.778466;0.781627;0.792270;0.794381;0.802201;0.804418;0.804190;0.812732;0.809932;0.812442;0.811332;0.810701;0.813041;0.810558;0.810335;0.810167;0.807218;0.807569;0.807707;0.802349;0.802540;0.804642;0.802402;0.795426;0.799738;0.794068;0.785961;0.784226;0.782030;0.781053;0.771824;0.771712;0.771208;0.765272;0.762418;0.755405;0.751942;0.751768;0.745426;0.740870;0.737677;0.736296;0.732819;0.723725;0.723596;0.720971;0.714228;0.713954;0.707470;0.705180;0.701964;0.698395;0.695154;0.692878;0.690944;0.693406;0.691432;0.679423;0.679842;0.674976;0.675736;0.671572;0.672246;0.667129;0.659911;0.660349;0.660502;0.658549;0.656945;0.657109;0.650266;0.652403;0.647520;0.650827;0.641578;0.642883;0.642889;0.637692;0.639643;0.635494;0.633989;0.627962;0.633285;0.627722;0.623970;0.625426;0.621256;0.618056;0.619855;0.616407;0.616309;0.612065;0.611862;0.613749;0.606185;0.606313;0.605107;0.600094;0.600654;0.598735;0.594676;0.596295;0.592158;0.591051;0.590424;0.588721;0.581845;0.586548;0.583314;0.578993;0.578817;0.574750;0.575235;0.579934;0.570588;0.569798;0.573835;0.566761;0.563299;0.562625;0.563082;0.556475;0.560774;0.558335;0.556144;0.553068;0.550598;0.550290;0.548593;0.552762;0.546472;0.547260;0.544371;0.545341;0.540145;0.537252;0.535834;0.535385;0.538373;0.536068;0.530509;0.530346;0.530020;0.529446;0.536149;0.530693;0.525903;0.524489;0.522972;0.521351;0.517853;0.515260;0.514961;0.522089;0.515478;0.516737;0.512226;0.511767;0.517353;0.514684;0.512146;0.510869;0.507927;0.510252;0.508604;0.502020;0.508799
0.520138;0.525435;0.523565;0.525243;0.523106;0.524375;0.526438;0.531204;0.531699;0.536034;0.535560;0.534263;0.537137;0.542668;0.542569;0.542819;0.549656;0.544363;0.546277;0.549642;0.554755;0.556195;0.554658;0.557849;0.559425;0.561715;0.563101;0.564412;0.568848;0.567229;0.570202;0.565417;0.575102;0.572141;0.570922;0.571791;0.577081;0.575288;0.581398;0.582712;0.583601;0.582500;0.578870;0.585635;0.582819;0.589158;0.581200;0.589957;0.588269;0.584001;0.590129;0.589729;0.590129;0.588704;0.585913;0.590423;0.592854;0.588693;0.591684;0.599804;0.593313;0.591214;0.592500;0.594848;0.594589;0.600928;0.598619;0.600616;0.600016;0.602451;0.605472;0.604398;0.606301;0.613308;0.609997;0.614605;0.618762;0.620208;0.625103;0.629355;0.632800;0.634243;0.636652;0.643487;0.646825;0.652132;0.655808;0.660186;0.661593;0.668598;0.673088;0.682898;0.686614;0.693516;0.694264;0.700429;0.707117;0.713213;0.718342;0.722916;0.731588;0.731315;0.740539;0.744541;0.748960;0.753219;0.754799;0.764442;0.767580;0.772326;0.777394;0.780356;0.786492;0.786120;0.795696;0.794941;0.792613;0.800188;0.804972;0.808220;0.809870;0.808868;0.809082;0.809268;0.812364;0.812105;0.808404;0.812763;0.810802;0.809123;0.809746;0.805813;0.804973;0.804452;0.800339;0.801450;0.799192;0.798121;0.797786;0.789440;0.789244;0.779278;0.784123;0.777613;0.775307;0.775138;0.766537;0.762017;0.757830;0.759326;0.751015;0.746806;0.743261;0.736670;0.736507;0.729344;0.720728;0.720165;0.719067;0.712847;0.708611;0.700548;0.690478;0.696252;0.686209;0.685919;0.679210;0.673125;0.669386;0.667722;0.662731;0.655351;0.649377;0.646254;0.642449;0.636547;0.634275;0.624539;0.619736;0.619882;0.611670;0.609594;0.605357;0.601571;0.593979;0.591412;0.587909;0.585020;0.581224;0.575922;0.573286;0.566286;0.563718;0.557545;0.557833;0.556871;0.552016;0.551787;0.544527;0.542395
0.534465;0.536594;0.541304;0.539819;0.548304;0.547739;0.548855;0.550095;0.555770;0.562662;0.558980;0.560698;0.571061;0.573723;0.572274;0.576111;0.581353;0.578383;0.589888;0.584239;0.592486;0.594055;0.598320;0.597175;0.601794;0.607888;0.607807;0.612792;0.609667;0.614388;0.619774;0.614088;0.623670;0.620456;0.619427;0.621218;0.617026;0.628884;0.622800;0.624058;0.622981;0.624117;0.626132;0.621916;0.631681;0.620757;0.620599;0.619231;0.612607;0.617037;0.615316;0.610594;0.608744;0.607737;0.608951;0.604214;0.602324;0.598503;0.596357;0.592485;0.587928;0.588726;0.586448;0.587019;0.581737;0.574742;0.575006;0.568184;0.566814;0.562745;0.557127;0.562800;0.553863;0.549173;0.550592;0.550373;0.549772;0.542174;0.543328;0.540155;0.541499;0.538146;0.534113;0.530001;0.532734;0.532532;0.527408;0.527860;0.530513;0.533049;0.531458;0.526330;0.531809;0.533528;0.528253;0.531431;0.530241;0.528584;0.529430;0.532267;0.538407;0.536820;0.543160;0.542226;0.543999;0.545165;0.550401;0.551651;0.554974;0.562888;0.562142;0.565285;0.567283;0.577904;0.579296;0.585069;0.590902;0.600260;0.603576;0.614169;0.615606;0.619504;0.629732;0.633444;0.642906;0.644850;0.661789;0.668663;0.669645;0.682440;0.687905;0.698677;0.704172;0.715044;0.727293;0.732757;0.742613;0.751521;0.759360;0.766432;0.775176;0.784146;0.789846;0.796498;0.803119;0.812047;0.816862;0.821454;0.830274;0.838835;0.838378;0.842700;0.852005;0.851323;0.855281;0.857914;0.858778;0.863045;0.861848;0.861843;0.867067;0.864145;0.852983;0.859381;0.851593;0.847298;0.848505;0.837578;0.840142;0.833981;0.825454;0.821943;0.818327;0.802258;0.803879;0.793504;0.783385;0.776883;0.770452;0.762268;0.753247;0.744852;0.734571;0.731375;0.719786;0.707639;0.699491;0.690705;0.684377;0.667728;0.663279;0.659241;0.647415;0.640270;0.633513;0.622730;0.614533;0.611800;0.602308;0.602268
0.502896;0.502842;0.504540;0.505681;0.502453;0.502338;0.506146;0.499788;0.504368;0.507126;0.505337;0.508537;0.506363;0.507411;0.513609;0.512628;0.511326;0.511558;0.513999;0.511376;0.511492;0.516738;0.519602;0.518451;0.517178;0.518542;0.524723;0.532686;0.531143;0.526946;0.529328;0.536820;0.536142;0.539114;0.542869;0.545409;0.546497;0.550947;0.554181;0.560337;0.563400;0.562320;0.567271;0.570074;0.579179;0.582172;0.583936;0.586617;0.596825;0.601454;0.603532;0.609418;0.617249;0.621274;0.626924;0.633078;0.640618;0.640466;0.647533;0.655160;0.662773;0.664826;0.668037;0.675403;0.682145;0.685428;0.688397;0.698166;0.703657;0.710619;0.713475;0.725385;0.725667;0.733452;0.735678;0.738565;0.742772;0.747735;0.754854;0.752432;0.760478;0.761003;0.767622;0.768381;0.772027;0.783529;0.778530;0.787748;0.784888;0.789274;0.792830;0.789925;0.796761;0.795807;0.798217;0.795691;0.799822;0.798079;0.802386;0.798894;0.798381;0.805375;0.805090;0.804758;0.804576;0.805144;0.806754;0.808567;0.806423;0.803924;0.805674;0.799504;0.801591;0.802858;0.801047;0.794327;0.796790;0.794574;0.799531;0.788352;0.789796;0.784726;0.784865;0.789411;0.780892;0.777901;0.775899;0.775296;0.768946;0.770237;0.765747;0.757705;0.755753;0.753538;0.748644;0.746257;0.740262;0.737861;0.732730;0.731637;0.717524;0.725728;0.720914;0.712809;0.708894;0.707375;0.702340;0.694555;0.694478;0.686828;0.687113;0.678734;0.677455;0.669036;0.665735;0.665183;0.660994;0.656102;0.651458;0.646964;0.647214;0.641941;0.634008;0.634589;0.626023;0.623083;0.622016;0.615025;0.612795;0.609431;0.606322;0.602045;0.595809;0.596056;0.589453;0.592296;0.587065;0.580706;0.579601;0.574227;0.570295;0.570014;0.569302;0.563973;0.558962;0.558789;0.554230;0.552566;0.550364;0.551673;0.550879;0.543340;0.537603;0.540167;0.534330;0.537214;0.531605;0.536924;0.527620;0.529020
0.518108;0.516997;0.516862;0.520248;0.522859;0.524836;0.528822;0.526120;0.528996;0.529314;0.534508;0.539077;0.538788;0.541426;0.545079;0.543294;0.544198;0.551560;0.553557;0.552776;0.556951;0.562614;0.564956;0.568910;0.571637;0.572216;0.575049;0.577955;0.586376;0.587659;0.591511;0.594674;0.594595;0.600279;0.606285;0.612486;0.617163;0.617865;0.625164;0.628406;0.631756;0.638379;0.640397;0.647027;0.651862;0.658035;0.665112;0.664876;0.674748;0.678348;0.681995;0.688143;0.690304;0.705318;0.706592;0.712162;0.711597;0.717662;0.722094;0.728505;0.732618;0.741685;0.743830;0.747924;0.753557;0.755021;0.758185;0.759147;0.770311;0.767724;0.766755;0.769147;0.776640;0.776802;0.780831;0.780742;0.780767;0.778413;0.779442;0.777541;0.776470;0.776468;0.769817;0.771001;0.768323;0.764999;0.767632;0.761263;0.754445;0.754683;0.746670;0.744919;0.742509;0.732544;0.732948;0.727755;0.719797;0.713300;0.714220;0.706242;0.698968;0.695165;0.694153;0.686795;0.676397;0.670380;0.674127;0.664206;0.660326;0.655757;0.651912;0.642047;0.642293;0.633079;0.637622;0.626052;0.630630;0.624196;0.625328;0.620745;0.623100;0.614591;0.616268;0.618430;0.611794;0.621008;0.616652;0.615735;0.616975;0.619136;0.622377;0.624530;0.627178;0.627737;0.632376;0.623752;0.632100;0.635378;0.635439;0.637624;0.641976;0.646618;0.647663;0.644120;0.653861;0.656296;0.661639;0.662929;0.661537;0.661833;0.666637;0.668224;0.670620;0.670253;0.668846;0.677863;0.673711;0.672972;0.669558;0.672772;0.671298;0.670147;0.676697;0.670127;0.674721;0.669837;0.664659;0.661359;0.663214;0.656608;0.659534;0.656547;0.650826;0.648905;0.641199;0.636276;0.637803;0.629941;0.629652;0.623998;0.622886;0.615511;0.613711;0.606042;0.602943;0.599499;0.591275;0.589702;0.584307;0.578566;0.573881;0.569805;0.569057;0.567628;0.562795;0.553459;0.552677;0.553741;0.550073;0.548407
0.550680;0.555943;0.555504;0.561259;0.563910;0.571666;0.575303;0.574494;0.585296;0.585832;0.589341;0.591873;0.597760;0.601139;0.609976;0.613922;0.614203;0.627780;0.628636;0.633147;0.636346;0.641751;0.650508;0.651303;0.657295;0.659774;0.662694;0.669298;0.675678;0.672883;0.686068;0.687697;0.691034;0.693093;0.689281;0.697306;0.697002;0.703056;0.704112;0.704650;0.706312;0.707399;0.706281;0.711724;0.717148;0.712051;0.717760;0.713604;0.709765;0.711905;0.710407;0.709341;0.708868;0.705546;0.708759;0.708098;0.704055;0.704982;0.701957;0.703297;0.695387;0.697486;0.694317;0.687778;0.690965;0.686884;0.685658;0.686265;0.677355;0.680634;0.675076;0.670714;0.670483;0.673639;0.671129;0.666929;0.663785;0.662931;0.663473;0.658791;0.658897;0.654554;0.660634;0.657891;0.651573;0.646142;0.657176;0.650550;0.648817;0.651911;0.648467;0.646054;0.641665;0.644662;0.640474;0.639496;0.639223;0.641067;0.642106;0.636067;0.646751;0.644056;0.641526;0.638095;0.641534;0.647353;0.641966;0.643913;0.639185;0.643706;0.641233;0.641364;0.643802;0.645589;0.646901;0.646106;0.649118;0.648019;0.652275;0.650172;0.654684;0.653789;0.659578;0.652508;0.656889;0.659711;0.658999;0.656889;0.659592;0.660760;0.662705;0.668197;0.665574;0.667353;0.667887;0.671774;0.674063;0.678043;0.674838;0.676271;0.677111;0.677645;0.676779;0.683612;0.684419;0.677559;0.677194;0.682458;0.684882;0.678174;0.679322;0.683897;0.682305;0.680836;0.675460;0.679601;0.678366;0.677669;0.673792;0.670564;0.669320;0.671145;0.667029;0.668270;0.665998;0.664872;0.662935;0.656839;0.653813;0.651463;0.650010;0.645691;0.642770;0.639259;0.634426;0.631071;0.628292;0.620431;0.619191;0.618929;0.611570;0.606191;0.606100;0.604416;0.597444;0.587036;0.584721;0.585846;0.581673;0.571111;0.573976;0.572032;0.568558;0.562409;0.559085;0.555901;0.549248;0.549952;0.541545;0.544067
0.530958;0.540526;0.533128;0.540079;0.540890;0.544991;0.548754;0.549630;0.554529;0.556146;0.558802;0.558478;0.563759;0.568211;0.571752;0.576354;0.578944;0.584456;0.585079;0.587850;0.592894;0.598029;0.604184;0.605759;0.614306;0.613592;0.622725;0.624948;0.629845;0.632633;0.635132;0.646028;0.645993;0.649331;0.657887;0.667035;0.665958;0.673562;0.679696;0.676595;0.682555;0.694680;0.696659;0.697606;0.703482;0.713014;0.714662;0.714495;0.715405;0.727351;0.736517;0.739259;0.741910;0.746775;0.752013;0.758054;0.761710;0.767438;0.768185;0.776666;0.776311;0.777580;0.784242;0.786699;0.786404;0.788869;0.793464;0.801744;0.799413;0.798454;0.805212;0.807817;0.804128;0.805393;0.807468;0.810983;0.805915;0.804781;0.804192;0.807390;0.805187;0.800617;0.803332;0.802067;0.799447;0.790555;0.787769;0.781962;0.782606;0.778478;0.770753;0.763923;0.765713;0.758430;0.757276;0.749122;0.745390;0.737214;0.730280;0.723151;0.719747;0.715231;0.711544;0.699778;0.701828;0.689771;0.685261;0.680780;0.675407;0.671577;0.668386;0.660964;0.654942;0.652409;0.648016;0.637144;0.634393;0.636882;0.631400;0.627951;0.625175;0.622742;0.613792;0.612525;0.609862;0.613185;0.611238;0.601739;0.609405;0.604492;0.604536;0.603392;0.603708;0.601934;0.601040;0.601300;0.598872;0.597133;0.601610;0.600899;0.598529;0.599472;0.597030;0.601030;0.601556;0.593376;0.597116;0.600719;0.599979;0.604233;0.601005;0.604084;0.606273;0.603946;0.598556;0.602377;0.602242;0.597147;0.595966;0.598685;0.598946;0.598354;0.597385;0.596273;0.593607;0.589513;0.587562;0.589450;0.591964;0.584814;0.582471;0.579758;0.579877;0.576833;0.572971;0.576415;0.571220;0.569418;0.564975;0.565470;0.559307;0.559125;0.559412;0.555538;0.553215;0.549421;0.546906;0.548209;0.541120;0.541484;0.538548;0.538264;0.535589;0.531552;0.527082;0.526838;0.531375;0.526888;0.520341;0.520625
0.583482;0.588538;0.590838;0.600063;0.606458;0.610125;0.616808;0.626531;0.634685;0.637420;0.646088;0.654261;0.665820;0.665525;0.673864;0.681634;0.686967;0.697204;0.706129;0.714830;0.714430;0.721919;0.737279;0.740296;0.751002;0.748821;0.759318;0.763205;0.769340;0.774045;0.777086;0.783521;0.785786;0.791406;0.796273;0.803013;0.799538;0.808121;0.808929;0.810784;0.805360;0.808265;0.806784;0.810134;0.805286;0.808714;0.798708;0.803166;0.796477;0.794319;0.791124;0.787151;0.786916;0.779878;0.771890;0.771577;0.762360;0.756941;0.751531;0.747665;0.735905;0.738023;0.731100;0.723878;0.714933;0.715341;0.706373;0.705319;0.696049;0.693612;0.687305;0.683486;0.674998;0.672359;0.667092;0.661869;0.658303;0.657936;0.651665;0.652063;0.648764;0.644026;0.648289;0.649434;0.643819;0.644424;0.641305;0.644195;0.643243;0.638443;0.642614;0.642388;0.642516;0.643961;0.645195;0.647657;0.647169;0.648107;0.645316;0.654023;0.649275;0.658264;0.654314;0.660255;0.665556;0.664959;0.667156;0.665187;0.666746;0.670319;0.669122;0.673687;0.670104;0.675175;0.678202;0.672531;0.673553;0.674230;0.679139;0.677175;0.676283;0.672293;0.673619;0.668387;0.664364;0.665241;0.665408;0.660185;0.661542;0.661187;0.652894;0.651611;0.649671;0.648695;0.647761;0.643227;0.634385;0.632638;0.626061;0.624989;0.617900;0.618145;0.613341;0.608945;0.600765;0.598958;0.596845;0.593690;0.585926;0.586098;0.581698;0.576079;0.570112;0.568372;0.562523;0.562305;0.559793;0.558819;0.553504;0.553420;0.546861;0.541780;0.537466;0.539220;0.533072;0.530264;0.526725;0.528572;0.520513;0.519567;0.524253;0.519086;0.518511;0.513443;0.515984;0.511756;0.508324;0.508452;0.509217;0.506579;0.505341;0.503234;0.504554;0.500543;0.500455;0.496560;0.500099;0.505847;0.501254;0.501281;0.496888;0.497405;0.500912;0.492497;0.498316;0.498878;0.500612;0.491679;0.497161;0.490432
0.571101;0.577436;0.583478;0.590694;0.595751;0.603824;0.607653;0.614186;0.620479;0.628094;0.629310;0.633473;0.646459;0.649485;0.656386;0.662337;0.668127;0.675447;0.685354;0.691858;0.693473;0.702908;0.711119;0.712313;0.721403;0.725931;0.729928;0.735429;0.745603;0.750046;0.751638;0.754447;0.760797;0.762415;0.767949;0.771423;0.772607;0.773894;0.780361;0.779880;0.781771;0.785447;0.781354;0.780782;0.788315;0.781239;0.780590;0.777162;0.779368;0.776296;0.775566;0.768859;0.771810;0.766437;0.763571;0.762367;0.753829;0.755275;0.747407;0.742835;0.739553;0.734029;0.732564;0.720976;0.717426;0.715545;0.710048;0.708614;0.709035;0.701663;0.700384;0.692581;0.688385;0.686640;0.688943;0.679833;0.675489;0.671763;0.671799;0.669178;0.666580;0.662999;0.666462;0.664350;0.664428;0.656731;0.659609;0.656718;0.660313;0.657574;0.659616;0.657683;0.658472;0.655263;0.658503;0.661180;0.663936;0.661672;0.663480;0.668781;0.665702;0.669852;0.669783;0.669170;0.672050;0.676028;0.674979;0.677129;0.679616;0.676403;0.681298;0.677907;0.679696;0.682786;0.684461;0.681500;0.683799;0.679247;0.682414;0.676355;0.680516;0.679374;0.680064;0.676111;0.674248;0.676184;0.676287;0.668753;0.670757;0.669045;0.666412;0.666059;0.662622;0.656532;0.654836;0.654909;0.653255;0.648040;0.639835;0.640195;0.645053;0.638959;0.630118;0.629054;0.627084;0.627225;0.618532;0.615638;0.612565;0.612164;0.609490;0.606877;0.603550;0.595564;0.597750;0.592054;0.587186;0.588009;0.583065;0.582619;0.576330;0.578779;0.573817;0.572559;0.571588;0.563916;0.565102;0.565090;0.559057;0.561152;0.553378;0.553779;0.551586;0.553322;0.545928;0.544610;0.542477;0.541525;0.537723;0.543367;0.538913;0.534833;0.532312;0.537063;0.531393;0.532687;0.533420;0.530409;0.530804;0.525968;0.525292;0.524495;0.522288;0.521593;0.514002;0.517226;0.523687;0.518708;0.519236;0.516716
0.535244;0.534909;0.543491;0.540825;0.545271;0.546236;0.549247;0.553480;0.553010;0.559723;0.562725;0.563137;0.570218;0.572702;0.574613;0.575584;0.576372;0.582176;0.585012;0.590427;0.593137;0.594369;0.603168;0.603829;0.608235;0.613948;0.611916;0.620086;0.626995;0.623767;0.629355;0.634046;0.637337;0.635857;0.642942;0.647270;0.649459;0.653077;0.655692;0.658361;0.656528;0.664569;0.663965;0.665959;0.669351;0.674231;0.675348;0.678353;0.685045;0.686492;0.685875;0.682882;0.689520;0.689549;0.696822;0.694222;0.697047;0.698179;0.702500;0.704449;0.707270;0.703660;0.707629;0.715041;0.709802;0.709791;0.714530;0.718794;0.712390;0.714502;0.718155;0.716308;0.723051;0.719658;0.717207;0.722725;0.718596;0.713520;0.717909;0.715456;0.723373;0.721950;0.721478;0.720481;0.719429;0.716839;0.717379;0.712582;0.714932;0.714704;0.714901;0.714904;0.714142;0.708906;0.708273;0.710684;0.710544;0.711170;0.706065;0.709692;0.707469;0.701721;0.704858;0.701603;0.698478;0.702479;0.699603;0.692327;0.694911;0.694765;0.694410;0.693817;0.690590;0.690528;0.687917;0.690525;0.689771;0.686325;0.690985;0.691226;0.689185;0.685064;0.681944;0.687798;0.686898;0.681627;0.682932;0.685492;0.684666;0.683600;0.686940;0.681247;0.680423;0.685678;0.678598;0.682930;0.682670;0.677720;0.676101;0.679909;0.678150;0.674549;0.674204;0.677801;0.678517;0.680254;0.674435;0.671149;0.674206;0.668608;0.667628;0.670971;0.668797;0.671720;0.669363;0.665456;0.663871;0.658116;0.656710;0.660617;0.653688;0.655365;0.652874;0.654412;0.644309;0.646309;0.641942;0.638764;0.638204;0.632838;0.629983;0.629608;0.624809;0.622851;0.613983;0.617933;0.609691;0.604278;0.604678;0.599803;0.594204;0.595107;0.592224;0.590406;0.585202;0.579793;0.578277;0.570495;0.572445;0.569360;0.567764;0.561003;0.558378;0.553367;0.549079;0.553824;0.540969;0.543983;0.540179;0.542477
0.564313;0.571327;0.576819;0.572253;0.584131;0.590505;0.591255;0.592269;0.609851;0.608193;0.613364;0.622409;0.624036;0.631040;0.642414;0.647338;0.644841;0.654934;0.656311;0.669733;0.673570;0.679899;0.682717;0.692746;0.697655;0.708669;0.706995;0.716090;0.721273;0.722849;0.729880;0.735156;0.737291;0.742631;0.746094;0.755709;0.758675;0.760114;0.765282;0.769758;0.766518;0.771436;0.775089;0.779650;0.776966;0.776854;0.780705;0.777604;0.782528;0.780297;0.783868;0.783935;0.784767;0.780651;0.783918;0.780309;0.781809;0.779263;0.776416;0.776730;0.777593;0.770935;0.771473;0.764819;0.766686;0.762170;0.761248;0.761170;0.755918;0.752988;0.745203;0.747141;0.743437;0.741951;0.734460;0.733128;0.733411;0.727473;0.723061;0.720607;0.713761;0.708831;0.714079;0.706054;0.700907;0.696229;0.690690;0.689374;0.681753;0.675726;0.678156;0.672303;0.670348;0.666447;0.657791;0.652627;0.647648;0.642164;0.642718;0.636413;0.635819;0.628837;0.623301;0.621348;0.616223;0.613280;0.608469;0.605393;0.602833;0.602463;0.599829;0.592666;0.591594;0.592530;0.591007;0.589636;0.579159;0.584519;0.579214;0.581307;0.581904;0.582571;0.577131;0.581689;0.578632;0.582580;0.575950;0.580825;0.575964;0.579326;0.579545;0.580171;0.579025;0.580213;0.578224;0.588581;0.584608;0.588504;0.587977;0.593049;0.587201;0.592413;0.596789;0.595571;0.593605;0.597684;0.596582;0.597195;0.602603;0.601819;0.597229;0.604580;0.602399;0.608364;0.608521;0.608976;0.605818;0.606642;0.602926;0.605971;0.605834;0.602890;0.604955;0.605315;0.598404;0.599399;0.604876;0.603909;0.592415;0.591664;0.593473;0.591925;0.587375;0.582613;0.582455;0.581718;0.578709;0.579300;0.574471;0.569563;0.569605;0.567239;0.562012;0.557063;0.557573;0.555345;0.550145;0.552252;0.551020;0.546700;0.539844;0.539818;0.538242;0.535037;0.531674;0.532656;0.527925;0.528910;0.522306;0.520141
0.557435;0.559363;0.567570;0.569567;0.573381;0.570818;0.579743;0.585667;0.591350;0.592279;0.603288;0.599634;0.606004;0.614707;0.620410;0.624197;0.626072;0.629781;0.641304;0.648836;0.648479;0.654860;0.660666;0.667471;0.662564;0.676874;0.676637;0.683357;0.686430;0.691040;0.691354;0.699109;0.701327;0.708211;0.708595;0.708112;0.711736;0.714711;0.714980;0.720504;0.721517;0.721857;0.722132;0.722285;0.722508;0.724738;0.726526;0.719455;0.723193;0.721428;0.726021;0.716172;0.721594;0.720541;0.714392;0.714332;0.710477;0.714462;0.712145;0.708937;0.706420;0.705124;0.705378;0.703823;0.699813;0.696626;0.700678;0.695959;0.694117;0.694834;0.690794;0.691727;0.691679;0.692509;0.686776;0.687314;0.689399;0.691758;0.687740;0.686160;0.688239;0.691289;0.688576;0.690047;0.691728;0.696264;0.694293;0.691767;0.698143;0.700343;0.704190;0.701575;0.707973;0.707811;0.712442;0.715019;0.717738;0.719814;0.722004;0.724559;0.728102;0.730849;0.733542;0.738346;0.737351;0.738625;0.743645;0.737625;0.744964;0.747553;0.754327;0.751050;0.750254;0.753341;0.752533;0.747461;0.752036;0.747580;0.749929;0.746569;0.745685;0.742901;0.740119;0.739511;0.735892;0.732858;0.728293;0.726444;0.723349;0.719315;0.713953;0.708734;0.709177;0.700917;0.690300;0.691068;0.687648;0.678118;0.676000;0.665944;0.659785;0.654619;0.653315;0.647389;0.641462;0.637012;0.626598;0.619908;0.613408;0.612834;0.603251;0.600584;0.591909;0.588174;0.587947;0.575975;0.578645;0.571205;0.569235;0.560211;0.558370;0.552936;0.550892;0.547625;0.544393;0.541689;0.533563;0.531463;0.525941;0.527646;0.525921;0.521596;0.525057;0.519815;0.516070;0.513362;0.514503;0.509103;0.508759;0.508951;0.506853;0.503895;0.505249;0.501716;0.504652;0.502757;0.503927;0.505473;0.500252;0.498899;0.497107;0.498809;0.500603;0.500927;0.498600;0.502565;0.500596;0.497012;0.499010;0.497431
0.596715;0.607841;0.609914;0.619072;0.627993;0.635434;0.643855;0.650471;0.656196;0.668134;0.672796;0.685597;0.688651;0.700173;0.711731;0.716730;0.725175;0.738341;0.743197;0.749326;0.762467;0.772750;0.783558;0.786210;0.797763;0.805147;0.812036;0.819258;0.822657;0.827749;0.833738;0.837248;0.844620;0.851271;0.858433;0.860829;0.864478;0.863336;0.863035;0.866654;0.868658;0.869039;0.873223;0.868601;0.864807;0.861426;0.861248;0.860782;0.853319;0.848205;0.847302;0.844496;0.839911;0.834694;0.830358;0.818184;0.814285;0.810879;0.799812;0.796621;0.785844;0.776636;0.768044;0.763714;0.755830;0.749091;0.741657;0.732032;0.725022;0.720086;0.714284;0.700084;0.694463;0.689133;0.682175;0.668637;0.668996;0.657118;0.651230;0.650058;0.642744;0.635790;0.631549;0.627282;0.618685;0.618570;0.609263;0.610109;0.601251;0.596212;0.593297;0.585754;0.584118;0.580217;0.579790;0.572869;0.572044;0.571001;0.565314;0.566289;0.563651;0.563639;0.563346;0.557086;0.555238;0.555618;0.550956;0.548098;0.548947;0.548476;0.550569;0.547617;0.548876;0.550368;0.550840;0.549471;0.549947;0.542979;0.549383;0.547927;0.552306;0.554048;0.554213;0.550472;0.558150;0.558446;0.559790;0.561222;0.562598;0.564692;0.560188;0.564999;0.566077;0.564404;0.568858;0.573370;0.578817;0.576049;0.575211;0.578518;0.587072;0.583354;0.582750;0.585173;0.587019;0.594026;0.590273;0.591801;0.597186;0.591438;0.597962;0.592897;0.596781;0.602226;0.597623;0.598429;0.597677;0.602175;0.597475;0.598502;0.596936;0.597745;0.602499;0.606044;0.597788;0.599421;0.595860;0.596469;0.592493;0.595500;0.588819;0.592495;0.587605;0.585472;0.579207;0.578285;0.578007;0.576543;0.577482;0.570544;0.572180;0.570213;0.564911;0.560646;0.559150;0.556525;0.555841;0.557509;0.549113;0.553325;0.549592;0.544406;0.539944;0.544586;0.538997;0.538503;0.535386;0.536925;0.531539;0.527888
0.526844;0.533889;0.533348;0.535235;0.535860;0.542910;0.544984;0.546890;0.547899;0.553899;0.553522;0.559400;0.558561;0.565784;0.565576;0.566021;0.567501;0.576302;0.583277;0.581582;0.587946;0.585416;0.588692;0.593345;0.601292;0.599280;0.604743;0.603849;0.604772;0.610351;0.609245;0.610118;0.616658;0.619329;0.615398;0.620719;0.626380;0.629173;0.624240;0.627292;0.627474;0.629702;0.632118;0.634365;0.630828;0.635391;0.637754;0.637173;0.636351;0.638196;0.637320;0.636147;0.637711;0.634494;0.639684;0.633938;0.636103;0.636206;0.636247;0.632648;0.635313;0.631926;0.631723;0.633625;0.632847;0.633487;0.629051;0.632499;0.634788;0.625457;0.624424;0.629981;0.626373;0.626931;0.625275;0.625843;0.626430;0.625038;0.621406;0.625150;0.626268;0.626761;0.626125;0.628333;0.624376;0.623388;0.618922;0.626720;0.622140;0.625533;0.623165;0.621920;0.625999;0.622906;0.627461;0.626928;0.625724;0.625517;0.627266;0.627069;0.633999;0.628952;0.633415;0.634599;0.631669;0.641140;0.637372;0.635421;0.637743;0.646091;0.650706;0.643217;0.645377;0.654626;0.654016;0.658909;0.656322;0.665570;0.666155;0.663492;0.666102;0.672966;0.674142;0.680261;0.677218;0.682615;0.688111;0.689058;0.693836;0.701053;0.698040;0.704086;0.712321;0.715190;0.718636;0.719738;0.718669;0.727238;0.734730;0.731020;0.737413;0.740361;0.737321;0.738958;0.746099;0.743893;0.751582;0.751865;0.751768;0.754425;0.756431;0.759324;0.759858;0.759857;0.756444;0.756616;0.760890;0.755602;0.759089;0.757494;0.752989;0.749037;0.750391;0.746057;0.748233;0.739071;0.736915;0.733330;0.731469;0.729651;0.722572;0.711589;0.710547;0.707653;0.706337;0.694159;0.686379;0.683590;0.676383;0.670729;0.667721;0.658612;0.654531;0.652059;0.641455;0.639401;0.630732;0.621400;0.618514;0.612752;0.606255;0.604343;0.598341;0.590791;0.585324;0.585455;0.578720;0.572112;0.563153;0.561533
0.513348;0.516735;0.514851;0.516812;0.523109;0.520599;0.523861;0.524166;0.522452;0.528660;0.531314;0.527759;0.533231;0.525337;0.532995;0.535288;0.539771;0.539965;0.542040;0.542515;0.545693;0.548344;0.547858;0.548684;0.547752;0.550654;0.551447;0.551934;0.554905;0.554588;0.555862;0.566056;0.557316;0.557135;0.565215;0.563957;0.566019;0.563314;0.566240;0.565110;0.562626;0.566487;0.568799;0.568718;0.563598;0.570871;0.568162;0.570587;0.572397;0.571139;0.568180;0.572017;0.570637;0.568777;0.572141;0.572291;0.569803;0.570592;0.575621;0.570374;0.572523;0.571985;0.565992;0.571124;0.571551;0.567034;0.570640;0.568523;0.569212;0.567301;0.565310;0.565144;0.565148;0.564227;0.568709;0.570963;0.567776;0.564894;0.564150;0.564743;0.567599;0.563090;0.561798;0.570039;0.564763;0.563335;0.562020;0.565805;0.565406;0.564509;0.565533;0.561932;0.572781;0.570641;0.571928;0.568981;0.570483;0.570970;0.576080;0.574822;0.578342;0.578227;0.579529;0.580004;0.587095;0.586371;0.584647;0.599155;0.592608;0.597854;0.603557;0.605104;0.606432;0.611306;0.621143;0.625880;0.628350;0.633158;0.637228;0.646457;0.655983;0.654432;0.665789;0.671001;0.677320;0.686150;0.692026;0.700819;0.707051;0.717778;0.722395;0.733755;0.740248;0.747145;0.753842;0.762852;0.775363;0.782287;0.788851;0.796017;0.803002;0.808633;0.820128;0.825419;0.832764;0.843508;0.849469;0.854720;0.856628;0.865697;0.869154;0.877143;0.879623;0.875802;0.878868;0.887310;0.887560;0.885261;0.890947;0.884948;0.886701;0.884003;0.884724;0.880320;0.880167;0.872549;0.872331;0.866396;0.853751;0.857148;0.848923;0.845349;0.839035;0.826679;0.827190;0.814438;0.808184;0.796353;0.782976;0.778752;0.768895;0.762571;0.754501;0.743019;0.732835;0.722125;0.713311;0.706476;0.700566;0.684579;0.682352;0.663371;0.657183;0.652202;0.645213;0.634450;0.623838;0.620696;0.613981;0.607211
0.525229;0.525181;0.529705;0.532392;0.532330;0.538173;0.538676;0.543493;0.541693;0.538391;0.545886;0.549775;0.554077;0.557455;0.554855;0.561702;0.562046;0.568697;0.570823;0.574808;0.580146;0.575365;0.585546;0.586490;0.589871;0.596203;0.593568;0.600534;0.604054;0.609256;0.609298;0.615739;0.617368;0.624723;0.629000;0.625273;0.639319;0.638411;0.640479;0.647095;0.647244;0.650041;0.655955;0.660941;0.660821;0.660406;0.672088;0.673843;0.681849;0.682381;0.684519;0.689417;0.692609;0.697086;0.701914;0.702349;0.704008;0.710484;0.711222;0.719164;0.718524;0.723084;0.724607;0.727159;0.730504;0.734520;0.731355;0.736488;0.738451;0.741370;0.739993;0.743320;0.746051;0.749114;0.747101;0.749488;0.747563;0.747809;0.749086;0.747765;0.749036;0.753489;0.751466;0.744992;0.747770;0.744966;0.738621;0.735287;0.737015;0.739331;0.732501;0.730271;0.733321;0.728421;0.722141;0.717411;0.716112;0.712146;0.712025;0.707077;0.704413;0.696708;0.694468;0.692670;0.693437;0.688140;0.686884;0.680133;0.672730;0.681026;0.673327;0.675309;0.668564;0.666802;0.665250;0.664209;0.655917;0.656140;0.657534;0.653882;0.657054;0.657154;0.653130;0.652023;0.651125;0.650538;0.651732;0.649643;0.650104;0.651247;0.653212;0.654658;0.652970;0.652115;0.649082;0.650665;0.651959;0.656402;0.649615;0.654484;0.656742;0.654461;0.654130;0.664036;0.659848;0.661754;0.658310;0.660368;0.658591;0.655672;0.661932;0.663039;0.661547;0.662548;0.662379;0.661704;0.657942;0.656181;0.655333;0.652823;0.653181;0.650469;0.649405;0.646083;0.645602;0.645358;0.638714;0.638628;0.641174;0.634994;0.634435;0.630917;0.626644;0.622705;0.616553;0.613696;0.611393;0.615149;0.609707;0.599205;0.595418;0.593683;0.590070;0.586639;0.580872;0.579212;0.574883;0.572047;0.564850;0.565446;0.563952;0.559375;0.553697;0.549822;0.545949;0.544668;0.544953;0.538785;0.534973;0.533577
0.515745;0.524714;0.521530;0.518861;0.526734;0.528351;0.524767;0.529094;0.528387;0.530169;0.539241;0.536182;0.542266;0.538301;0.540574;0.540861;0.548294;0.545929;0.547246;0.549472;0.550872;0.550857;0.554606;0.559419;0.560788;0.556395;0.559763;0.561462;0.567006;0.563348;0.565460;0.565919;0.570278;0.567770;0.567313;0.577125;0.569513;0.571405;0.571819;0.579405;0.578594;0.579830;0.578893;0.580610;0.581437;0.577993;0.576295;0.582826;0.574864;0.583007;0.582278;0.578170;0.581335;0.579790;0.577543;0.574130;0.578869;0.577736;0.574468;0.582242;0.578316;0.579434;0.578242;0.574303;0.577831;0.579364;0.573471;0.578183;0.579789;0.576734;0.573012;0.580911;0.583880;0.581085;0.579488;0.578237;0.585974;0.591168;0.587798;0.595953;0.591019;0.594566;0.594454;0.597348;0.601455;0.599565;0.600917;0.608242;0.607521;0.613913;0.615706;0.621682;0.618117;0.624150;0.623064;0.630005;0.633323;0.638639;0.642197;0.643886;0.647623;0.652875;0.661181;0.663548;0.664644;0.668753;0.672706;0.681860;0.679999;0.684172;0.690815;0.692145;0.696561;0.701064;0.707459;0.707586;0.716675;0.721642;0.719547;0.723177;0.728189;0.735766;0.739457;0.739315;0.741887;0.747110;0.748298;0.750957;0.757921;0.760680;0.762735;0.770858;0.769094;0.776797;0.780262;0.779734;0.782879;0.784110;0.783806;0.784074;0.786623;0.790866;0.792762;0.799370;0.798267;0.801456;0.799196;0.796386;0.795256;0.796742;0.797859;0.798898;0.798097;0.796969;0.796712;0.792823;0.791288;0.787398;0.792270;0.786171;0.783865;0.777704;0.780310;0.772718;0.771247;0.760496;0.758013;0.752212;0.748240;0.745308;0.739309;0.733635;0.725648;0.721493;0.715466;0.711864;0.702163;0.697406;0.688987;0.684475;0.674033;0.672472;0.660350;0.659906;0.647499;0.644751;0.632820;0.629579;0.625021;0.618822;0.610891;0.606721;0.598818;0.593583;0.589572;0.580914;0.578272;0.567609;0.570082;0.562069
0.562854;0.570920;0.568614;0.583191;0.587586;0.591299;0.593315;0.599252;0.607080;0.610520;0.621980;0.625218;0.627437;0.637020;0.645434;0.649186;0.655321;0.662940;0.671021;0.672423;0.683208;0.686380;0.691791;0.697888;0.699543;0.709890;0.721812;0.720994;0.726397;0.726711;0.735665;0.740534;0.750750;0.746903;0.756218;0.759920;0.757287;0.764153;0.770001;0.764931;0.773516;0.779486;0.775844;0.779425;0.777584;0.781576;0.783553;0.784963;0.780979;0.785503;0.779800;0.786012;0.781876;0.779799;0.780305;0.779342;0.775271;0.775238;0.775521;0.776167;0.772250;0.768472;0.768467;0.767045;0.766459;0.761009;0.758098;0.754602;0.753291;0.752647;0.749111;0.744697;0.744555;0.739600;0.739455;0.741184;0.736330;0.740999;0.728038;0.731933;0.725471;0.725041;0.724009;0.716410;0.721892;0.719853;0.717074;0.712740;0.712079;0.718425;0.710454;0.710025;0.705503;0.708522;0.704218;0.708065;0.702110;0.700651;0.703502;0.702027;0.696818;0.697659;0.694474;0.690825;0.697049;0.694600;0.691822;0.691063;0.691120;0.680893;0.687190;0.682940;0.688181;0.679298;0.680436;0.675136;0.675072;0.674933;0.670613;0.674599;0.666276;0.667948;0.667686;0.663488;0.656517;0.654976;0.652617;0.653116;0.650959;0.643765;0.639827;0.638263;0.634382;0.636701;0.632930;0.626072;0.621640;0.619747;0.615418;0.613268;0.605724;0.607605;0.594286;0.596224;0.597358;0.591457;0.590627;0.586525;0.580223;0.579131;0.576211;0.574078;0.576299;0.572897;0.567248;0.563492;0.559335;0.558107;0.555699;0.552317;0.550143;0.546279;0.543235;0.545663;0.543398;0.536743;0.539838;0.535882;0.531852;0.536458;0.530122;0.530433;0.524764;0.527605;0.525925;0.524598;0.521357;0.523631;0.522142;0.516483;0.519394;0.516085;0.516362;0.517294;0.516368;0.517936;0.515440;0.516556;0.515433;0.514156;0.508827;0.514550;0.512588;0.508829;0.507058;0.510018;0.511302;0.510614;0.507324;0.506753
0.525523;0.527249;0.530726;0.533574;0.532023;0.539009;0.537950;0.545561;0.544439;0.543089;0.543914;0.550251;0.547813;0.553075;0.558609;0.562398;0.564932;0.567336;0.569081;0.573809;0.574095;0.576920;0.574961;0.585959;0.582793;0.587361;0.589487;0.594748;0.592216;0.597650;0.598179;0.602363;0.601312;0.606542;0.609023;0.611839;0.611553;0.614292;0.615809;0.617535;0.622795;0.622285;0.627390;0.624867;0.621091;0.626550;0.631651;0.634002;0.631082;0.637365;0.633988;0.634837;0.637528;0.636868;0.642503;0.639513;0.642328;0.648307;0.651715;0.649456;0.649942;0.652094;0.654567;0.649639;0.660328;0.657439;0.662786;0.658097;0.663478;0.663844;0.667998;0.667729;0.670900;0.674521;0.673946;0.684740;0.682259;0.687271;0.688689;0.693012;0.693721;0.696123;0.699655;0.705971;0.708441;0.708906;0.712545;0.716976;0.727327;0.727122;0.731565;0.735410;0.736520;0.744953;0.747320;0.755006;0.757263;0.755309;0.762038;0.764298;0.770507;0.776192;0.782725;0.785693;0.783850;0.788281;0.793582;0.796287;0.799613;0.806161;0.804644;0.805318;0.804689;0.809627;0.806040;0.807454;0.807671;0.810915;0.812583;0.807280;0.805661;0.808210;0.800687;0.803154;0.800389;0.797470;0.796557;0.788542;0.784370;0.777223;0.778145;0.772640;0.766731;0.765173;0.759241;0.746668;0.748531;0.743789;0.736322;0.728591;0.723185;0.718885;0.711544;0.704333;0.700110;0.692513;0.684877;0.678884;0.677113;0.664723;0.662853;0.659066;0.653525;0.646790;0.638824;0.627725;0.626433;0.618502;0.617396;0.610132;0.601759;0.598525;0.589751;0.593697;0.584224;0.582741;0.581872;0.569515;0.568794;0.565360;0.564051;0.563053;0.558339;0.557975;0.551241;0.545395;0.547978;0.544114;0.539668;0.537225;0.540672;0.531806;0.530492;0.523657;0.525462;0.521165;0.521579;0.523891;0.514026;0.517476;0.510136;0.514851;0.516019;0.509691;0.509808;0.507712;0.509869;0.506893;0.506963;0.505312
0.526357;0.527590;0.536661;0.528803;0.536565;0.535929;0.538931;0.544435;0.546002;0.549711;0.547929;0.551526;0.553501;0.561185;0.561261;0.559052;0.564613;0.565806;0.574654;0.575056;0.577202;0.578378;0.580261;0.585739;0.584443;0.590500;0.593352;0.597065;0.593524;0.600274;0.596910;0.601518;0.605377;0.608070;0.605416;0.606129;0.608743;0.609394;0.611409;0.609652;0.617364;0.612871;0.617257;0.615874;0.616031;0.616660;0.613686;0.617067;0.612671;0.616624;0.617976;0.616090;0.621700;0.609624;0.612518;0.609013;0.608379;0.607145;0.608723;0.611032;0.606405;0.603558;0.605754;0.604783;0.601975;0.601507;0.601144;0.596005;0.596281;0.594586;0.590389;0.590075;0.585535;0.592260;0.582979;0.584656;0.582189;0.584673;0.584443;0.580665;0.578196;0.574502;0.575100;0.569756;0.571201;0.575033;0.572352;0.567789;0.570008;0.565746;0.562354;0.568681;0.563770;0.564124;0.565457;0.565058;0.568282;0.566030;0.562746;0.562666;0.562525;0.568291;0.566752;0.565743;0.566882;0.573900;0.571018;0.578333;0.578781;0.576157;0.580126;0.585470;0.585280;0.595455;0.592416;0.601352;0.609394;0.611960;0.616898;0.623519;0.623393;0.634553;0.639050;0.640493;0.649469;0.655958;0.662234;0.665658;0.670908;0.683464;0.691394;0.698444;0.708457;0.718171;0.727893;0.738121;0.742280;0.749147;0.762769;0.763691;0.777911;0.784255;0.791049;0.798061;0.803746;0.813851;0.817731;0.824693;0.823953;0.830224;0.834695;0.845161;0.844621;0.853217;0.858016;0.857968;0.856795;0.862283;0.865796;0.854475;0.861881;0.861615;0.857737;0.858500;0.849013;0.848326;0.849466;0.839825;0.836078;0.831618;0.828137;0.821868;0.816900;0.813336;0.807759;0.794351;0.786355;0.782448;0.776024;0.765109;0.752491;0.749560;0.741813;0.730496;0.719792;0.713397;0.708556;0.696359;0.689935;0.676938;0.670011;0.661954;0.658441;0.648039;0.640175;0.631329;0.624686;0.619314;0.610735;0.608399
0.575379;0.579845;0.588127;0.594564;0.599624;0.600618;0.606737;0.615478;0.619381;0.628256;0.634212;0.635792;0.645424;0.651524;0.655381;0.668683;0.672303;0.683020;0.688633;0.697595;0.699959;0.710878;0.714807;0.724095;0.726732;0.735322;0.740153;0.747440;0.751549;0.755518;0.757553;0.765004;0.767472;0.772699;0.780810;0.782873;0.786926;0.786664;0.794048;0.792759;0.795900;0.797461;0.804010;0.805166;0.805404;0.798496;0.803411;0.802778;0.800515;0.799687;0.796770;0.794797;0.793009;0.796192;0.791126;0.787495;0.784309;0.783752;0.782927;0.775712;0.768956;0.770257;0.762650;0.762713;0.762182;0.754151;0.750341;0.746683;0.740748;0.739111;0.737668;0.732404;0.726895;0.725252;0.721670;0.722097;0.712711;0.711576;0.708862;0.702746;0.704239;0.704581;0.694716;0.695697;0.695198;0.689677;0.686584;0.686996;0.688987;0.682205;0.683981;0.680526;0.682651;0.679539;0.673079;0.678181;0.676122;0.672245;0.666331;0.673573;0.671922;0.667562;0.666451;0.665941;0.666554;0.668018;0.666128;0.664354;0.664683;0.662408;0.661365;0.657728;0.658764;0.657244;0.659177;0.653501;0.652604;0.652015;0.650508;0.650821;0.647174;0.645276;0.648150;0.640693;0.636196;0.639321;0.636589;0.629790;0.633160;0.634417;0.629016;0.627510;0.629186;0.627490;0.622529;0.619043;0.613862;0.611316;0.606347;0.608023;0.603135;0.604835;0.601355;0.597279;0.596784;0.592059;0.588127;0.589392;0.584405;0.582523;0.579464;0.580558;0.572487;0.572536;0.569671;0.567132;0.566507;0.563142;0.567989;0.561172;0.562836;0.558102;0.555077;0.557923;0.550735;0.550287;0.552817;0.543502;0.545894;0.540441;0.539383;0.544949;0.535187;0.540792;0.537397;0.532623;0.532658;0.534941;0.533150;0.529148;0.527676;0.527398;0.528036;0.527654;0.528193;0.525889;0.522910;0.521756;0.523402;0.519831;0.520697;0.519165;0.524352;0.518787;0.515604;0.514946;0.514152;0.515894;0.511670;0.515921
0.576678;0.577271;0.586467;0.594461;0.598412;0.603274;0.611268;0.619444;0.629004;0.635323;0.639446;0.643401;0.652536;0.658464;0.668308;0.679696;0.682823;0.688592;0.699168;0.704795;0.713952;0.724894;0.724692;0.736900;0.742360;0.749622;0.751883;0.759058;0.766988;0.772130;0.774559;0.785790;0.789460;0.793616;0.795263;0.806096;0.805124;0.811756;0.815050;0.814276;0.819508;0.822302;0.822114;0.829415;0.829033;0.824466;0.830292;0.826144;0.826756;0.822781;0.825798;0.826503;0.825846;0.822042;0.820858;0.817644;0.813671;0.810782;0.805489;0.801484;0.801980;0.796372;0.792459;0.791600;0.786147;0.781098;0.778465;0.774616;0.773252;0.769670;0.769247;0.762257;0.755084;0.752616;0.749757;0.744344;0.744351;0.739802;0.736339;0.734457;0.732837;0.720562;0.720027;0.717954;0.712128;0.712025;0.705436;0.698617;0.701659;0.695864;0.692613;0.685139;0.692278;0.678921;0.679477;0.676767;0.676829;0.670644;0.667349;0.668767;0.663379;0.655052;0.653517;0.648596;0.653083;0.648853;0.646100;0.641175;0.641004;0.638449;0.636037;0.636153;0.628947;0.630783;0.626263;0.618277;0.620059;0.624600;0.618132;0.615757;0.612697;0.608891;0.606723;0.604966;0.605730;0.605136;0.600955;0.597119;0.596128;0.596141;0.589394;0.589057;0.590198;0.589920;0.579622;0.583662;0.582818;0.582592;0.580691;0.575983;0.575125;0.577147;0.568936;0.568500;0.569498;0.562333;0.563670;0.564312;0.562149;0.560820;0.557805;0.552135;0.551990;0.552616;0.553922;0.547186;0.547286;0.546781;0.546422;0.542331;0.542939;0.537961;0.540860;0.542011;0.540673;0.535297;0.538317;0.529852;0.535846;0.527910;0.530383;0.526661;0.529693;0.526564;0.526577;0.522489;0.520770;0.525781;0.522249;0.523046;0.522289;0.517522;0.519508;0.518653;0.519211;0.511567;0.514194;0.514026;0.518855;0.512881;0.515621;0.513054;0.508313;0.510367;0.515987;0.512934;0.512944;0.511315;0.512144;0.509206
0.552544;0.554786;0.560387;0.561919;0.569255;0.573731;0.574633;0.580029;0.581766;0.581948;0.594790;0.596646;0.602702;0.605466;0.612596;0.617510;0.618591;0.626619;0.628394;0.635753;0.641553;0.642413;0.652422;0.656138;0.656339;0.665743;0.664104;0.671826;0.670121;0.673560;0.680997;0.687814;0.686880;0.688640;0.691469;0.692168;0.691175;0.695246;0.701899;0.697986;0.695366;0.697722;0.703969;0.701287;0.701445;0.695394;0.700928;0.699424;0.698364;0.695027;0.692952;0.688908;0.687936;0.689319;0.682938;0.684734;0.680528;0.672591;0.669127;0.670666;0.663437;0.660869;0.656799;0.651844;0.653392;0.652393;0.644474;0.643020;0.636252;0.635831;0.633334;0.626713;0.625964;0.621925;0.617258;0.611682;0.617979;0.611134;0.611938;0.609188;0.601566;0.601662;0.603074;0.599521;0.595521;0.595825;0.590046;0.593930;0.587623;0.592465;0.589471;0.593820;0.588155;0.588267;0.588179;0.591852;0.590928;0.590479;0.588265;0.590638;0.591305;0.593592;0.587740;0.590453;0.592985;0.594411;0.600876;0.598160;0.605454;0.604541;0.607483;0.606423;0.609322;0.616798;0.613443;0.614671;0.622976;0.623365;0.625833;0.624997;0.628642;0.633627;0.640315;0.636970;0.645634;0.645914;0.653642;0.654513;0.657014;0.664246;0.666447;0.669912;0.672842;0.677830;0.683761;0.685088;0.690160;0.690065;0.692361;0.695957;0.700537;0.708420;0.709572;0.710693;0.714614;0.717868;0.718511;0.718696;0.721971;0.725202;0.725793;0.728686;0.731254;0.731663;0.730819;0.730354;0.730929;0.730590;0.729598;0.726928;0.731076;0.727105;0.724567;0.722826;0.723375;0.721828;0.716836;0.717788;0.706533;0.704152;0.701293;0.698475;0.690142;0.685259;0.684708;0.678067;0.675916;0.670621;0.659837;0.658464;0.652136;0.649130;0.637812;0.635270;0.632243;0.634857;0.624451;0.610209;0.612270;0.606638;0.601764;0.597500;0.589266;0.583790;0.582105;0.567816;0.567168;0.563347;0.563643;0.558520
0.522041;0.528989;0.528807;0.531565;0.531594;0.532271;0.541914;0.539451;0.542638;0.545665;0.550987;0.548415;0.555435;0.560288;0.558942;0.559427;0.560041;0.563887;0.566716;0.568759;0.574204;0.571683;0.578262;0.582442;0.580730;0.583104;0.585826;0.586207;0.594976;0.595280;0.598448;0.598419;0.601183;0.601797;0.606879;0.608934;0.608677;0.607855;0.611096;0.616204;0.618397;0.613989;0.615064;0.615265;0.618745;0.618571;0.623234;0.620446;0.619779;0.617928;0.620633;0.620328;0.625469;0.626875;0.625118;0.625365;0.629240;0.627126;0.625933;0.631689;0.630150;0.627121;0.630603;0.626382;0.629735;0.633040;0.634248;0.631741;0.634782;0.633752;0.632346;0.637947;0.632873;0.634685;0.643588;0.638056;0.642822;0.645895;0.650510;0.648412;0.651694;0.656821;0.651788;0.656904;0.656099;0.663377;0.663745;0.665123;0.669388;0.673638;0.671500;0.680256;0.682085;0.688157;0.691923;0.691364;0.696624;0.698366;0.703674;0.704686;0.709013;0.713900;0.715501;0.715818;0.719185;0.726783;0.726068;0.731492;0.733329;0.736793;0.741767;0.743908;0.744555;0.746105;0.749260;0.749917;0.755519;0.758625;0.755952;0.758273;0.761166;0.762981;0.764615;0.760983;0.764707;0.766422;0.762276;0.767339;0.769380;0.763284;0.763632;0.760258;0.768164;0.763819;0.767490;0.762472;0.761965;0.759910;0.758584;0.753829;0.754125;0.757289;0.749975;0.752363;0.749978;0.745765;0.744502;0.747748;0.742410;0.736893;0.730719;0.736708;0.733793;0.727573;0.723696;0.722257;0.717470;0.719237;0.711513;0.711015;0.699812;0.702389;0.698841;0.691081;0.690024;0.689400;0.683531;0.677721;0.676605;0.666915;0.664905;0.662653;0.655921;0.651158;0.651246;0.643026;0.636672;0.638988;0.628757;0.622760;0.624263;0.615293;0.614166;0.608941;0.606230;0.600266;0.594164;0.593109;0.586810;0.580835;0.580786;0.576689;0.571889;0.568182;0.565149;0.561797;0.556074;0.557188;0.551223;0.549551
0.524346;0.525239;0.525560;0.528047;0.525271;0.526912;0.528288;0.533013;0.533283;0.538189;0.537747;0.542580;0.542528;0.540167;0.546093;0.547452;0.544635;0.550848;0.554945;0.551176;0.562170;0.555462;0.562797;0.562250;0.567289;0.563875;0.568623;0.570330;0.571701;0.572848;0.574106;0.578651;0.575531;0.583218;0.586975;0.583697;0.585043;0.584611;0.588047;0.586748;0.589105;0.590215;0.586495;0.588498;0.581965;0.588851;0.586862;0.592351;0.589221;0.589980;0.592639;0.590653;0.590074;0.589417;0.589183;0.590676;0.589173;0.585840;0.586658;0.590894;0.583527;0.585643;0.588053;0.580280;0.586069;0.588680;0.584961;0.588804;0.587321;0.584620;0.584144;0.582677;0.579987;0.582345;0.584252;0.585156;0.583932;0.583933;0.587275;0.584442;0.586776;0.585306;0.585402;0.590945;0.591340;0.589803;0.592074;0.596761;0.595543;0.598570;0.595979;0.600751;0.604671;0.601678;0.605844;0.606153;0.609372;0.613130;0.617154;0.615097;0.618587;0.625627;0.627094;0.624926;0.634258;0.636996;0.636791;0.640482;0.646787;0.647696;0.652828;0.654927;0.657428;0.664112;0.667657;0.672677;0.677830;0.677305;0.681920;0.685162;0.691762;0.696160;0.702534;0.704089;0.714361;0.713231;0.718887;0.724466;0.730257;0.732528;0.739763;0.739727;0.754302;0.750459;0.752768;0.758369;0.765912;0.770781;0.772719;0.777908;0.779917;0.782680;0.790069;0.793188;0.796017;0.799809;0.803399;0.807793;0.805000;0.808755;0.804389;0.811108;0.814036;0.810344;0.812422;0.812336;0.809446;0.811826;0.809726;0.808494;0.801712;0.802040;0.801795;0.797716;0.791452;0.789408;0.782574;0.780335;0.777309;0.773193;0.766131;0.756219;0.752218;0.746024;0.745094;0.738394;0.726569;0.723283;0.713793;0.702197;0.699573;0.692320;0.685699;0.678584;0.672866;0.663363;0.657143;0.648748;0.639900;0.632681;0.623607;0.622278;0.617477;0.609101;0.603385;0.600589;0.589523;0.584875;0.571016;0.572553
0.550740;0.550044;0.550001;0.558749;0.563315;0.565392;0.570368;0.572871;0.581858;0.580027;0.583140;0.590396;0.596992;0.595870;0.598971;0.606376;0.611521;0.615565;0.619746;0.622068;0.635268;0.634875;0.642329;0.642138;0.657019;0.658468;0.658399;0.664175;0.675159;0.680449;0.680738;0.684388;0.692399;0.693568;0.696794;0.702193;0.704019;0.710879;0.714016;0.717488;0.724646;0.724821;0.731535;0.732715;0.736973;0.737640;0.746200;0.744189;0.747182;0.750956;0.748366;0.756302;0.760434;0.756756;0.761111;0.763213;0.761368;0.767305;0.767975;0.768319;0.769118;0.773201;0.774561;0.772274;0.772928;0.769572;0.765876;0.772264;0.779222;0.773795;0.775941;0.770396;0.767349;0.769965;0.768282;0.768100;0.767002;0.759266;0.761884;0.759628;0.757798;0.756214;0.752108;0.747076;0.744885;0.741019;0.742465;0.735235;0.729145;0.727341;0.716587;0.723705;0.710564;0.710322;0.702321;0.700987;0.697728;0.693222;0.686138;0.681936;0.676147;0.670792;0.666425;0.665966;0.663860;0.651814;0.651933;0.649969;0.643421;0.636330;0.634502;0.631042;0.631577;0.626571;0.623007;0.622839;0.617155;0.618939;0.611993;0.609439;0.605520;0.605479;0.608026;0.603358;0.601765;0.601228;0.599864;0.599724;0.599124;0.599518;0.599582;0.600718;0.601297;0.601229;0.600661;0.599015;0.604098;0.601289;0.601035;0.603259;0.610480;0.610254;0.607726;0.606539;0.602936;0.603045;0.605437;0.613217;0.610846;0.606695;0.613736;0.615635;0.614048;0.607196;0.612071;0.617399;0.611773;0.615361;0.613165;0.618056;0.611377;0.614648;0.611845;0.610896;0.608786;0.604213;0.605201;0.606425;0.602418;0.602827;0.600572;0.596029;0.596559;0.591862;0.589418;0.589061;0.585021;0.587224;0.584717;0.578927;0.573482;0.572421;0.570289;0.565725;0.563046;0.567040;0.558115;0.556374;0.552638;0.552982;0.547594;0.545971;0.544471;0.539920;0.534295;0.536623;0.535188;0.527547;0.531045;0.525266
0.556864;0.558922;0.565707;0.574180;0.576253;0.578141;0.583191;0.587970;0.590264;0.600032;0.603693;0.608549;0.612034;0.617568;0.622677;0.634059;0.642814;0.642864;0.646220;0.651462;0.658339;0.663295;0.671407;0.673455;0.676379;0.689425;0.687308;0.694307;0.698399;0.703957;0.703950;0.711386;0.710096;0.718980;0.726460;0.724616;0.729219;0.731439;0.732695;0.739571;0.736608;0.740756;0.739006;0.740236;0.743252;0.741622;0.743055;0.744386;0.747031;0.744569;0.735581;0.742663;0.735788;0.734153;0.737108;0.733955;0.731465;0.734024;0.729001;0.726776;0.723511;0.726136;0.720525;0.714735;0.717803;0.713148;0.708220;0.702791;0.701624;0.702033;0.696380;0.699261;0.695411;0.693017;0.693762;0.687775;0.685059;0.680731;0.674631;0.673771;0.670384;0.668059;0.666564;0.665420;0.656834;0.661606;0.656034;0.656044;0.653584;0.648402;0.646613;0.644192;0.642673;0.638920;0.635321;0.639096;0.633801;0.634941;0.626617;0.626344;0.628012;0.625142;0.626617;0.618841;0.620361;0.621043;0.621183;0.619666;0.620458;0.617629;0.616357;0.613384;0.614461;0.615698;0.614873;0.619928;0.618092;0.616391;0.618217;0.614630;0.617921;0.620582;0.618871;0.617505;0.619521;0.620748;0.624215;0.627554;0.623973;0.633322;0.632983;0.631200;0.635079;0.636658;0.641117;0.638731;0.639729;0.638181;0.643168;0.644079;0.652602;0.654021;0.652603;0.652619;0.654939;0.655529;0.655440;0.658343;0.658839;0.661199;0.665283;0.665863;0.662812;0.663036;0.660142;0.665523;0.664590;0.659372;0.663702;0.661088;0.665025;0.656657;0.660217;0.658085;0.655067;0.650958;0.654664;0.654276;0.646344;0.643016;0.645946;0.634150;0.633701;0.632703;0.627282;0.625853;0.623625;0.622486;0.615697;0.612579;0.609918;0.610415;0.604007;0.599386;0.596914;0.593447;0.587836;0.581619;0.580986;0.575617;0.570796;0.573035;0.566570;0.565653;0.557275;0.557889;0.552429;0.551263;0.547858;0.543129
0.532774;0.538223;0.538114;0.542804;0.545955;0.550169;0.551302;0.554664;0.557461;0.558468;0.559807;0.563054;0.569419;0.572760;0.573310;0.580901;0.576662;0.586527;0.587973;0.591670;0.592512;0.593540;0.603355;0.599291;0.610827;0.617948;0.616861;0.616193;0.620919;0.621898;0.622252;0.629063;0.633833;0.637824;0.636919;0.641927;0.643371;0.643491;0.647215;0.652544;0.650359;0.652027;0.653062;0.652446;0.655466;0.657513;0.660147;0.659529;0.663530;0.658510;0.661782;0.660713;0.661460;0.663985;0.670404;0.659283;0.664224;0.666782;0.665392;0.663628;0.671077;0.669601;0.666510;0.666055;0.665742;0.666701;0.671637;0.671008;0.668855;0.674403;0.666927;0.670145;0.673340;0.672056;0.667852;0.677142;0.675512;0.676710;0.676980;0.680595;0.685279;0.686116;0.688004;0.687027;0.691749;0.689628;0.694438;0.699060;0.699942;0.702671;0.702179;0.703372;0.706136;0.712182;0.717597;0.716198;0.719493;0.722932;0.723001;0.723573;0.729497;0.731389;0.732047;0.732790;0.738626;0.740589;0.743257;0.742788;0.745667;0.752775;0.753146;0.753969;0.752416;0.753224;0.756847;0.757373;0.756462;0.756649;0.760609;0.757653;0.763167;0.758432;0.751972;0.756245;0.755378;0.753677;0.753619;0.750123;0.748033;0.741752;0.741637;0.744000;0.746646;0.737448;0.735114;0.731715;0.729093;0.726522;0.721074;0.720513;0.720298;0.717620;0.708045;0.703957;0.704542;0.696422;0.694822;0.687824;0.681951;0.687588;0.679292;0.675851;0.669474;0.665767;0.665203;0.656655;0.651765;0.654796;0.649551;0.642715;0.638842;0.640698;0.631689;0.624958;0.628845;0.626138;0.617072;0.616811;0.612500;0.605378;0.605912;0.601102;0.596157;0.600631;0.594630;0.591261;0.585428;0.579322;0.579168;0.576716;0.572560;0.569325;0.568484;0.563635;0.561047;0.558583;0.552493;0.553447;0.542561;0.546490;0.545604;0.543451;0.544456;0.539256;0.537693;0.536935;0.534759;0.528554;0.528924;0.526851
0.528220;0.531448;0.527221;0.533758;0.531772;0.535604;0.540959;0.540098;0.542597;0.543022;0.548063;0.546895;0.547546;0.552852;0.556470;0.561239;0.565586;0.570424;0.569386;0.573117;0.571439;0.581137;0.576685;0.579390;0.588271;0.587986;0.594215;0.591994;0.599606;0.600299;0.605362;0.601325;0.611339;0.615367;0.614397;0.621817;0.623725;0.627062;0.625029;0.630657;0.633778;0.639038;0.637801;0.643325;0.647891;0.647398;0.650037;0.654253;0.657656;0.661906;0.665831;0.668090;0.664922;0.673963;0.670966;0.677086;0.675309;0.682367;0.681669;0.689722;0.690650;0.687244;0.695481;0.696218;0.699885;0.695725;0.702792;0.703747;0.710708;0.708710;0.708591;0.714519;0.717148;0.714763;0.721070;0.722716;0.721142;0.722469;0.722111;0.730510;0.728158;0.729779;0.731519;0.728230;0.733571;0.731780;0.734307;0.736415;0.734422;0.735872;0.737259;0.740063;0.740505;0.738169;0.733528;0.736953;0.738414;0.741166;0.742478;0.738248;0.738381;0.736580;0.737100;0.740986;0.736318;0.732945;0.736011;0.736493;0.741943;0.734406;0.737433;0.736541;0.734975;0.735529;0.730069;0.736559;0.731627;0.735212;0.728426;0.730941;0.728794;0.725459;0.724414;0.724509;0.729222;0.721796;0.722379;0.722167;0.720598;0.719929;0.711668;0.717867;0.713924;0.713986;0.705731;0.707443;0.699853;0.706026;0.698513;0.697916;0.697805;0.696344;0.693352;0.689653;0.687758;0.687019;0.684303;0.680318;0.679462;0.677349;0.674316;0.672960;0.666417;0.668859;0.663528;0.657755;0.657745;0.659232;0.656278;0.645760;0.643582;0.644725;0.638895;0.637737;0.630970;0.632872;0.631436;0.627593;0.625286;0.617194;0.622216;0.614712;0.608283;0.607212;0.604982;0.601128;0.597405;0.596285;0.593922;0.587662;0.586380;0.586344;0.579686;0.575940;0.573851;0.569594;0.565934;0.564227;0.560833;0.556901;0.557464;0.554284;0.552637;0.545492;0.542647;0.541705;0.540656;0.539024;0.537164;0.535964
0.524361;0.519201;0.529219;0.531842;0.530712;0.537830;0.534976;0.541887;0.539676;0.545863;0.540581;0.548450;0.551996;0.556368;0.552299;0.554637;0.560029;0.566265;0.569200;0.568037;0.568655;0.574223;0.576368;0.582464;0.582165;0.589180;0.585690;0.590074;0.599396;0.597294;0.598653;0.608827;0.607666;0.607379;0.615793;0.618068;0.624266;0.623527;0.627956;0.626864;0.630464;0.634803;0.637733;0.636274;0.646899;0.647073;0.652055;0.654013;0.653869;0.660819;0.665153;0.664155;0.664425;0.673125;0.669861;0.675286;0.680876;0.682030;0.682393;0.691657;0.687520;0.693575;0.698330;0.696439;0.700500;0.701935;0.704806;0.709930;0.711074;0.708118;0.710496;0.721568;0.721480;0.723535;0.726486;0.724573;0.730162;0.724893;0.728795;0.733547;0.740315;0.737411;0.735611;0.740909;0.742355;0.739249;0.745486;0.745148;0.749580;0.744686;0.744764;0.749147;0.749164;0.751450;0.751822;0.754091;0.754399;0.752674;0.752287;0.754340;0.753892;0.757244;0.755782;0.758497;0.755996;0.749999;0.758457;0.754688;0.753823;0.754785;0.754836;0.751385;0.754330;0.750046;0.751032;0.751073;0.752152;0.749799;0.748107;0.744931;0.745535;0.739840;0.741775;0.736544;0.733437;0.735819;0.732070;0.725673;0.725209;0.723758;0.719702;0.716270;0.715202;0.711705;0.710154;0.706389;0.705365;0.698987;0.697235;0.693100;0.690764;0.688876;0.683236;0.677789;0.677029;0.667807;0.664283;0.666227;0.661299;0.655667;0.656134;0.652894;0.648306;0.645185;0.639328;0.638757;0.633773;0.633522;0.629635;0.621725;0.620903;0.619800;0.615746;0.610911;0.608271;0.606273;0.605898;0.599049;0.593304;0.592981;0.591417;0.585452;0.588393;0.579823;0.573835;0.574556;0.569721;0.565645;0.569140;0.560320;0.555793;0.556677;0.562928;0.556341;0.546240;0.546921;0.548238;0.545237;0.541367;0.539441;0.539116;0.533019;0.529520;0.530766;0.525216;0.525771;0.520812;0.521627;0.523794;0.517886
0.512524;0.517363;0.518037;0.515891;0.521340;0.525211;0.520125;0.528842;0.526828;0.531028;0.532785;0.535014;0.533891;0.532736;0.543142;0.545184;0.547325;0.547043;0.544925;0.548676;0.555938;0.560838;0.564810;0.566341;0.563999;0.569992;0.573843;0.582265;0.580707;0.587403;0.598286;0.599081;0.603772;0.609707;0.608531;0.617834;0.623214;0.629308;0.636986;0.644038;0.646128;0.654676;0.662594;0.671235;0.675390;0.682291;0.690313;0.695617;0.704221;0.713630;0.727403;0.730447;0.742155;0.747593;0.756962;0.760541;0.768001;0.781172;0.783391;0.791101;0.798931;0.810388;0.816478;0.826502;0.829703;0.837851;0.841416;0.850004;0.857886;0.857534;0.859459;0.868369;0.868874;0.875345;0.878922;0.877828;0.883830;0.879224;0.879947;0.889175;0.883779;0.878741;0.881340;0.883379;0.877672;0.878270;0.873586;0.870995;0.864917;0.862095;0.859028;0.849477;0.841751;0.842112;0.833412;0.829091;0.818132;0.812814;0.803711;0.794701;0.788689;0.783856;0.772495;0.768516;0.757783;0.752729;0.743434;0.735652;0.727255;0.720256;0.713171;0.710331;0.697120;0.692800;0.687099;0.673738;0.671686;0.661209;0.663735;0.653133;0.654622;0.644956;0.636239;0.637041;0.631388;0.629186;0.620511;0.620125;0.617471;0.610911;0.607266;0.609478;0.605714;0.601973;0.598044;0.595539;0.599413;0.597544;0.591807;0.591953;0.587888;0.585778;0.589319;0.584522;0.583819;0.583366;0.585119;0.580347;0.583020;0.582895;0.580781;0.582021;0.577102;0.580026;0.578669;0.578717;0.577113;0.572307;0.575928;0.573958;0.573463;0.571594;0.572541;0.573231;0.570765;0.568765;0.565281;0.564969;0.565628;0.565024;0.562755;0.560537;0.562406;0.555788;0.554489;0.559444;0.554513;0.550484;0.545357;0.548742;0.549794;0.547374;0.543732;0.547234;0.542347;0.538016;0.537943;0.538079;0.538392;0.534567;0.529907;0.530558;0.533377;0.529914;0.527067;0.527596;0.526559;0.520769;0.519727;0.524472
0.510338;0.508795;0.517671;0.514866;0.511619;0.516034;0.515757;0.516506;0.519999;0.522552;0.518092;0.517871;0.523872;0.523044;0.523543;0.523026;0.524993;0.529924;0.530125;0.528085;0.533302;0.535962;0.538298;0.537271;0.544798;0.543665;0.548594;0.545492;0.549297;0.552368;0.553009;0.553583;0.560340;0.560278;0.565007;0.565154;0.569893;0.573970;0.574007;0.579992;0.578082;0.587926;0.589193;0.593453;0.592801;0.594708;0.603118;0.605965;0.608896;0.611637;0.615898;0.622319;0.625329;0.628061;0.630674;0.635492;0.644519;0.646576;0.653008;0.654991;0.662453;0.665720;0.664882;0.671917;0.678348;0.682527;0.690702;0.693366;0.697383;0.704767;0.709227;0.710349;0.714609;0.721546;0.727678;0.728732;0.737262;0.739088;0.745498;0.748195;0.749512;0.755687;0.760666;0.766514;0.763830;0.772438;0.777955;0.782662;0.782324;0.786073;0.789448;0.799213;0.796692;0.802227;0.807505;0.809362;0.812977;0.810505;0.817274;0.817209;0.820054;0.829346;0.825625;0.835213;0.833339;0.831177;0.836856;0.836993;0.835038;0.835189;0.839086;0.841612;0.840364;0.839334;0.839892;0.836202;0.833840;0.834299;0.828503;0.829018;0.830789;0.823341;0.819570;0.814834;0.811614;0.811170;0.806100;0.794288;0.793077;0.790882;0.790169;0.783572;0.774472;0.768329;0.759759;0.757397;0.746959;0.747223;0.738655;0.733148;0.727713;0.717006;0.712531;0.708742;0.701712;0.693972;0.682660;0.681751;0.677030;0.668380;0.658546;0.656219;0.645262;0.640232;0.636176;0.631031;0.624325;0.623157;0.620242;0.615389;0.605100;0.602341;0.595335;0.593097;0.588049;0.583021;0.578471;0.572226;0.568372;0.570647;0.562164;0.557996;0.557231;0.557347;0.550215;0.549113;0.545809;0.546289;0.539258;0.539287;0.536151;0.533267;0.532265;0.534526;0.530699;0.527045;0.526609;0.527208;0.522520;0.521459;0.521634;0.521024;0.517807;0.519568;0.512619;0.516676;0.513747;0.515379;0.509848;0.512238
0.521168;0.520631;0.522104;0.528328;0.526193;0.527856;0.529024;0.528287;0.534434;0.535318;0.535944;0.540200;0.540629;0.540208;0.547411;0.550069;0.544654;0.552265;0.557454;0.555370;0.559246;0.559029;0.559441;0.562958;0.561695;0.564889;0.571601;0.569875;0.567863;0.575105;0.579067;0.577024;0.581764;0.584282;0.582807;0.586346;0.583375;0.585664;0.586857;0.588771;0.589108;0.592592;0.590648;0.591640;0.599185;0.600435;0.599337;0.602575;0.604563;0.601332;0.602452;0.606184;0.601531;0.603538;0.601295;0.602950;0.605069;0.606904;0.611153;0.610349;0.609962;0.613418;0.612784;0.616757;0.609156;0.617008;0.613152;0.615418;0.618188;0.619153;0.620208;0.625478;0.625563;0.629231;0.633268;0.628621;0.630654;0.634811;0.629597;0.643594;0.637751;0.641131;0.647761;0.651656;0.652888;0.656026;0.659312;0.661137;0.666590;0.666214;0.674738;0.677660;0.679815;0.682033;0.684401;0.688297;0.692699;0.694009;0.703714;0.703921;0.710860;0.712807;0.722551;0.721174;0.724671;0.726975;0.733002;0.736444;0.737738;0.740986;0.743475;0.743153;0.741971;0.749670;0.751298;0.760496;0.757568;0.765003;0.765535;0.766630;0.769020;0.765913;0.769760;0.768273;0.767245;0.765716;0.771538;0.773008;0.769098;0.766374;0.772994;0.773040;0.773823;0.769408;0.772060;0.768563;0.771603;0.771896;0.760674;0.766371;0.765554;0.765112;0.758439;0.756797;0.758828;0.751361;0.750971;0.747831;0.745709;0.741396;0.739811;0.743723;0.737811;0.731315;0.729221;0.722114;0.724896;0.715254;0.716502;0.710937;0.707703;0.703070;0.697157;0.696076;0.693428;0.688280;0.686076;0.679606;0.676451;0.668736;0.670083;0.657904;0.656032;0.648001;0.649089;0.639962;0.638836;0.632445;0.626194;0.622361;0.617871;0.614141;0.612488;0.605576;0.595795;0.595107;0.591668;0.589002;0.583799;0.576200;0.574976;0.565853;0.562987;0.557380;0.555157;0.553207;0.544931;0.549193;0.542326;0.541370
0.510733;0.511601;0.512180;0.515042;0.515745;0.513342;0.518758;0.518889;0.519714;0.517927;0.523531;0.521615;0.524232;0.528916;0.524340;0.531209;0.527042;0.526452;0.533563;0.531646;0.532160;0.535785;0.533684;0.539538;0.542566;0.546977;0.545086;0.545873;0.547720;0.546435;0.547608;0.549758;0.550550;0.552602;0.557530;0.560621;0.560767;0.566051;0.566417;0.567726;0.567587;0.575074;0.573173;0.579330;0.575808;0.580009;0.578259;0.583788;0.582903;0.585177;0.590110;0.590352;0.590162;0.590547;0.591312;0.592386;0.597231;0.600143;0.599938;0.608196;0.606160;0.609573;0.607925;0.611129;0.615790;0.620478;0.619518;0.617269;0.618096;0.626261;0.626828;0.628434;0.629496;0.628455;0.629571;0.631369;0.635524;0.630785;0.633511;0.634677;0.637311;0.637964;0.638389;0.641572;0.645603;0.644957;0.646585;0.645591;0.646193;0.645915;0.650463;0.652504;0.651240;0.650456;0.646405;0.650662;0.653572;0.647993;0.661175;0.657759;0.652665;0.657480;0.662534;0.662957;0.663570;0.659252;0.664340;0.669258;0.669000;0.672945;0.670827;0.674172;0.676370;0.678159;0.677536;0.683905;0.689820;0.686696;0.689515;0.698452;0.692778;0.696594;0.699300;0.701803;0.705592;0.716169;0.713689;0.717535;0.721637;0.720631;0.727621;0.735329;0.732319;0.742808;0.742303;0.749880;0.749866;0.760793;0.755642;0.762112;0.759741;0.768303;0.773360;0.768202;0.775811;0.775340;0.785578;0.782002;0.785357;0.785126;0.787598;0.790242;0.789271;0.788575;0.786864;0.787726;0.790135;0.789384;0.790170;0.786874;0.786846;0.777973;0.784013;0.776699;0.769617;0.765828;0.764278;0.759397;0.761857;0.751169;0.744013;0.741552;0.734158;0.733063;0.721913;0.721817;0.711431;0.704135;0.697788;0.687537;0.681388;0.675879;0.670247;0.666588;0.658363;0.649415;0.646520;0.639713;0.632238;0.626160;0.620049;0.611017;0.604479;0.601631;0.594523;0.586786;0.584120;0.577810;0.567947;0.566676
0.527119;0.534347;0.534259;0.534921;0.534942;0.543591;0.538073;0.546157;0.553473;0.550046;0.555390;0.554087;0.553613;0.558703;0.562352;0.564129;0.564376;0.568256;0.576012;0.579360;0.578895;0.583557;0.583316;0.584872;0.591744;0.591215;0.595669;0.592712;0.603429;0.598874;0.603167;0.607213;0.606927;0.611174;0.612025;0.614239;0.619722;0.616734;0.616799;0.618338;0.623313;0.621749;0.628590;0.619364;0.623728;0.627473;0.627117;0.628106;0.628986;0.627119;0.625900;0.630386;0.622172;0.630975;0.627703;0.627882;0.628774;0.628608;0.629561;0.627730;0.616831;0.622424;0.620420;0.619859;0.625421;0.617487;0.619737;0.619017;0.620626;0.619510;0.617952;0.615468;0.612619;0.613281;0.617456;0.616972;0.613856;0.618742;0.614412;0.616331;0.610002;0.616054;0.610908;0.615425;0.613871;0.615991;0.613451;0.614176;0.620328;0.617574;0.618356;0.618618;0.623915;0.628086;0.624108;0.622119;0.627787;0.628186;0.628545;0.632742;0.625311;0.631910;0.639237;0.639482;0.638908;0.643762;0.647991;0.645222;0.647756;0.654921;0.654243;0.662268;0.658760;0.659661;0.663664;0.670548;0.672418;0.675359;0.678016;0.678062;0.683323;0.688734;0.694357;0.698062;0.693907;0.699255;0.702598;0.710125;0.713698;0.720469;0.724450;0.724230;0.733416;0.735810;0.738859;0.738014;0.742948;0.747376;0.751940;0.750802;0.755252;0.767669;0.772083;0.769764;0.771660;0.773184;0.777501;0.778930;0.781204;0.780244;0.787643;0.783056;0.781436;0.784819;0.789268;0.787764;0.786097;0.782667;0.785353;0.783739;0.779844;0.773444;0.781200;0.771518;0.770010;0.765764;0.759602;0.757558;0.754465;0.746608;0.746924;0.740926;0.736990;0.733520;0.722365;0.717910;0.713428;0.705127;0.700143;0.692028;0.689478;0.684378;0.677876;0.669596;0.660516;0.654569;0.647124;0.644924;0.640446;0.631098;0.622326;0.619131;0.610985;0.610894;0.603915;0.599271;0.595894;0.586940;0.584984;0.576822
0.537604;0.537952;0.543018;0.540771;0.546211;0.545094;0.552862;0.553113;0.558127;0.562059;0.566621;0.566596;0.574427;0.577167;0.578404;0.588456;0.582323;0.589750;0.595659;0.602103;0.603486;0.604674;0.610422;0.609061;0.613566;0.616300;0.626831;0.625189;0.639476;0.637474;0.641143;0.646372;0.647644;0.652200;0.657940;0.661441;0.663566;0.665264;0.672543;0.672751;0.682717;0.684674;0.687329;0.686140;0.693198;0.700291;0.698770;0.702425;0.706445;0.711725;0.716753;0.710434;0.719729;0.723021;0.720275;0.721594;0.729857;0.728805;0.733906;0.735882;0.739273;0.742716;0.742411;0.749751;0.748640;0.747568;0.753344;0.749849;0.754692;0.759143;0.762096;0.762626;0.762972;0.759325;0.763146;0.766470;0.769611;0.769895;0.768213;0.777146;0.767645;0.772410;0.771222;0.769251;0.766466;0.769465;0.772377;0.770554;0.767576;0.767660;0.767921;0.767870;0.768772;0.769494;0.767685;0.764787;0.769540;0.766696;0.765275;0.763608;0.758760;0.756112;0.759726;0.752755;0.759459;0.754234;0.748603;0.750211;0.746179;0.746462;0.739859;0.740900;0.735197;0.735338;0.734519;0.729367;0.729037;0.729702;0.721120;0.722345;0.718066;0.711362;0.709257;0.706471;0.705323;0.700833;0.696277;0.691172;0.689583;0.686868;0.679205;0.673122;0.676555;0.668526;0.665790;0.660315;0.659555;0.653841;0.651974;0.648220;0.641778;0.633853;0.633670;0.630173;0.630020;0.622425;0.621636;0.614501;0.610075;0.607201;0.603132;0.603904;0.595418;0.593754;0.585373;0.585234;0.585540;0.581512;0.580341;0.575508;0.569753;0.567735;0.564651;0.564301;0.561166;0.553571;0.558849;0.551726;0.554583;0.547876;0.545953;0.544449;0.541922;0.537546;0.538900;0.536058;0.531320;0.535390;0.535235;0.533203;0.531575;0.520450;0.522672;0.523316;0.523063;0.520089;0.521263;0.518961;0.516068;0.515953;0.516879;0.511615;0.515749;0.510525;0.516116;0.512022;0.514600;0.507551;0.510767;0.513540
0.559779;0.568032;0.569529;0.578353;0.579547;0.583033;0.591895;0.592248;0.602366;0.604094;0.610900;0.619236;0.623284;0.634045;0.634375;0.639253;0.644901;0.651435;0.658467;0.661560;0.669580;0.677962;0.681517;0.688691;0.692206;0.699459;0.697704;0.710404;0.713091;0.714462;0.726217;0.725729;0.731745;0.735118;0.739320;0.738487;0.745262;0.743684;0.747763;0.745761;0.750046;0.756391;0.752962;0.750888;0.752128;0.759195;0.755401;0.757844;0.755369;0.753920;0.752773;0.747406;0.746603;0.749996;0.748942;0.740096;0.741561;0.740798;0.737237;0.730011;0.738212;0.728205;0.725162;0.717890;0.720259;0.716304;0.715922;0.711215;0.711004;0.704905;0.700846;0.696374;0.696424;0.699275;0.689334;0.688299;0.684295;0.686428;0.681879;0.680512;0.685166;0.679549;0.679507;0.671848;0.673180;0.678663;0.672263;0.671529;0.666810;0.669443;0.673103;0.668519;0.665738;0.670637;0.666647;0.671858;0.670506;0.674441;0.666993;0.673580;0.672953;0.671847;0.673054;0.670720;0.668519;0.671621;0.669369;0.673187;0.674652;0.671565;0.674107;0.674781;0.669679;0.673109;0.671628;0.669767;0.671222;0.674917;0.671604;0.673316;0.670019;0.675860;0.674063;0.670483;0.666572;0.669707;0.673087;0.671087;0.667472;0.667972;0.661384;0.663989;0.660564;0.661934;0.661301;0.655052;0.658098;0.654405;0.653257;0.651848;0.656410;0.649584;0.645248;0.641614;0.637339;0.641038;0.641303;0.633478;0.632168;0.633244;0.632448;0.627819;0.630407;0.624793;0.622767;0.615289;0.616657;0.616114;0.612627;0.608746;0.608002;0.606042;0.601982;0.601320;0.596939;0.594354;0.590631;0.591796;0.588080;0.585330;0.582895;0.580616;0.581515;0.583134;0.577238;0.572951;0.570704;0.568727;0.568625;0.564391;0.562128;0.561970;0.556954;0.554258;0.553790;0.552256;0.546433;0.548402;0.548202;0.542137;0.541795;0.540716;0.539011;0.537170;0.534690;0.534414;0.535732;0.526493;0.528814;0.531949
0.522458;0.528764;0.527136;0.524237;0.536734;0.533722;0.536572;0.537374;0.542163;0.544668;0.547346;0.552148;0.555498;0.552109;0.557504;0.559814;0.569184;0.565413;0.566687;0.571770;0.575096;0.582125;0.581923;0.588752;0.590747;0.587607;0.597280;0.602195;0.600308;0.606971;0.610245;0.614052;0.611644;0.619394;0.622070;0.627122;0.630537;0.633602;0.637181;0.640148;0.650540;0.651064;0.659772;0.660384;0.665917;0.672929;0.674592;0.677335;0.680533;0.686065;0.686198;0.698294;0.702592;0.704486;0.708147;0.710911;0.715422;0.722710;0.725669;0.727143;0.736748;0.735882;0.742743;0.739807;0.746193;0.750258;0.754633;0.753353;0.761784;0.761871;0.769128;0.767234;0.768335;0.777292;0.774561;0.775743;0.781552;0.782457;0.778819;0.784529;0.779307;0.787302;0.788855;0.787314;0.791306;0.785149;0.789610;0.791607;0.786021;0.784894;0.785152;0.785946;0.786563;0.782094;0.780049;0.777797;0.777840;0.773438;0.779782;0.774381;0.774707;0.771837;0.764807;0.766116;0.760316;0.754035;0.758010;0.756455;0.757394;0.753750;0.751619;0.742085;0.740986;0.738523;0.737986;0.734366;0.732101;0.727345;0.723654;0.724044;0.720847;0.714327;0.715656;0.709845;0.704537;0.702718;0.701750;0.698580;0.691558;0.691020;0.692311;0.680206;0.677048;0.673695;0.670683;0.666885;0.661808;0.662673;0.656565;0.656101;0.652415;0.646641;0.642125;0.645070;0.636997;0.636587;0.624663;0.624371;0.621989;0.620326;0.617977;0.614216;0.608769;0.607306;0.609472;0.600015;0.596921;0.596917;0.594504;0.588278;0.590093;0.588865;0.584799;0.580958;0.577221;0.573324;0.570146;0.570435;0.564914;0.562124;0.560641;0.556083;0.553501;0.559121;0.552716;0.551823;0.547252;0.554365;0.546592;0.547707;0.539476;0.541572;0.541455;0.537862;0.531879;0.533295;0.532244;0.532181;0.529124;0.528068;0.523753;0.526693;0.523301;0.521622;0.524534;0.521232;0.511053;0.515844;0.516131;0.517505
0.516034;0.520266;0.519527;0.522142;0.523307;0.526060;0.530303;0.532611;0.534814;0.535327;0.534921;0.535818;0.542691;0.541959;0.549012;0.549965;0.551148;0.556429;0.560775;0.556747;0.565594;0.567194;0.571857;0.573500;0.579376;0.584541;0.590198;0.596195;0.594740;0.599324;0.608384;0.610483;0.619119;0.626551;0.629135;0.634571;0.643596;0.645470;0.653577;0.656194;0.668259;0.671944;0.679530;0.684500;0.694983;0.702190;0.710688;0.720318;0.727077;0.733417;0.736634;0.750773;0.761005;0.766103;0.776325;0.785502;0.789842;0.801727;0.804100;0.816514;0.822589;0.828812;0.842279;0.844595;0.850838;0.856623;0.860927;0.871817;0.873071;0.876918;0.886686;0.887835;0.890794;0.893829;0.897438;0.897225;0.903533;0.902151;0.902579;0.907276;0.903695;0.901583;0.898373;0.900357;0.892557;0.887012;0.886600;0.884483;0.881640;0.877900;0.865508;0.859086;0.852310;0.847184;0.839256;0.832899;0.821876;0.814654;0.798531;0.795469;0.786814;0.780504;0.770788;0.762133;0.751457;0.739698;0.733705;0.724783;0.713841;0.709719;0.700144;0.696918;0.683582;0.674060;0.673119;0.659626;0.651100;0.645866;0.638857;0.638327;0.623146;0.627460;0.617286;0.613831;0.605402;0.602947;0.599219;0.593501;0.586000;0.581848;0.583136;0.583242;0.577015;0.578377;0.571225;0.568899;0.566458;0.569120;0.561547;0.566438;0.567446;0.565429;0.558541;0.564508;0.560031;0.551938;0.555320;0.555380;0.557264;0.558367;0.556709;0.556892;0.559118;0.555956;0.556704;0.553616;0.560145;0.553334;0.555116;0.553934;0.554845;0.550623;0.549690;0.553696;0.544827;0.547129;0.550882;0.547161;0.544758;0.545901;0.544191;0.540317;0.544086;0.541776;0.542178;0.538499;0.536064;0.534406;0.536021;0.533562;0.533251;0.530349;0.528674;0.527857;0.528396;0.526239;0.524906;0.524559;0.523900;0.522872;0.522158;0.521104;0.522835;0.519304;0.516705;0.517687;0.517804;0.515957;0.515106;0.513811
0.504963;0.509518;0.507609;0.509941;0.506054;0.507029;0.509393;0.509118;0.514631;0.511181;0.513925;0.510279;0.511047;0.513126;0.511730;0.515806;0.511222;0.515586;0.513411;0.515199;0.510902;0.513910;0.516444;0.520283;0.522404;0.520373;0.520169;0.523502;0.522220;0.520144;0.519462;0.519464;0.523018;0.520083;0.526174;0.526464;0.530238;0.526157;0.523897;0.525333;0.527908;0.530526;0.531338;0.528666;0.529244;0.533094;0.533210;0.529758;0.530112;0.534344;0.532121;0.532346;0.533209;0.537569;0.533547;0.532683;0.535344;0.534683;0.536325;0.533499;0.540627;0.539579;0.535261;0.538850;0.536714;0.539348;0.537267;0.541903;0.543173;0.539788;0.541716;0.550339;0.549013;0.548065;0.548370;0.550041;0.551210;0.552085;0.554769;0.552914;0.560193;0.554197;0.559942;0.560298;0.561582;0.557770;0.562753;0.564361;0.566417;0.571400;0.571406;0.573921;0.575779;0.572751;0.584625;0.578598;0.579265;0.592896;0.590972;0.590279;0.597884;0.603339;0.602943;0.607361;0.610874;0.610439;0.616503;0.622028;0.627982;0.634877;0.637112;0.644717;0.646839;0.651904;0.661925;0.660966;0.672974;0.676746;0.681426;0.683776;0.692628;0.700890;0.709376;0.711626;0.725837;0.727179;0.736597;0.743711;0.750766;0.759689;0.758863;0.775861;0.782690;0.789239;0.796010;0.803503;0.816755;0.816859;0.822692;0.836599;0.840736;0.851333;0.853856;0.861424;0.869839;0.873011;0.879146;0.878935;0.888740;0.896353;0.894514;0.898729;0.893330;0.906923;0.908841;0.909312;0.908546;0.909665;0.908053;0.909553;0.907896;0.903789;0.901331;0.897645;0.891811;0.885849;0.883500;0.881621;0.874275;0.870853;0.863750;0.853230;0.851377;0.840853;0.828200;0.818430;0.814843;0.802949;0.795316;0.792034;0.778990;0.770554;0.757563;0.747950;0.740754;0.734393;0.724409;0.709628;0.701495;0.695703;0.683415;0.672850;0.665328;0.657002;0.650903;0.644020;0.632524;0.628452;0.622451;0.612382
0.543338;0.550683;0.548139;0.553226;0.557549;0.561770;0.563552;0.562887;0.568863;0.573463;0.578480;0.582676;0.590735;0.593765;0.593925;0.598863;0.606196;0.607254;0.614681;0.616736;0.620554;0.623826;0.627802;0.632494;0.638604;0.641388;0.647327;0.650915;0.652390;0.662675;0.662390;0.665126;0.666620;0.670479;0.674169;0.672479;0.683427;0.683422;0.687327;0.689963;0.694222;0.691153;0.695961;0.696491;0.699343;0.701154;0.697569;0.698474;0.698510;0.698893;0.699362;0.704415;0.697523;0.700117;0.704537;0.702935;0.705852;0.702729;0.705227;0.707595;0.705473;0.705339;0.705901;0.702772;0.702403;0.697334;0.702587;0.705070;0.706065;0.708151;0.703092;0.706159;0.707839;0.711117;0.710655;0.705749;0.708564;0.711531;0.715186;0.712435;0.711894;0.709213;0.717526;0.714635;0.717803;0.718287;0.724485;0.724590;0.724396;0.725148;0.729437;0.733199;0.739671;0.740370;0.742528;0.742486;0.741460;0.744378;0.747258;0.745100;0.751847;0.750557;0.758275;0.754700;0.755637;0.760998;0.760872;0.759416;0.768274;0.762577;0.763003;0.765830;0.767255;0.762424;0.768585;0.765716;0.765995;0.766796;0.759884;0.757331;0.760182;0.759184;0.754568;0.753813;0.745832;0.751478;0.745377;0.743101;0.737048;0.734385;0.727054;0.717022;0.716227;0.711241;0.711007;0.700145;0.697018;0.695281;0.686236;0.681956;0.680281;0.673333;0.665775;0.657926;0.653060;0.648026;0.645661;0.636215;0.628274;0.625752;0.621948;0.614119;0.608861;0.605337;0.603090;0.597090;0.591017;0.584726;0.578554;0.577550;0.573413;0.573479;0.565130;0.564622;0.556124;0.551694;0.555795;0.555915;0.549152;0.545306;0.540695;0.540177;0.533477;0.532938;0.534857;0.532809;0.533131;0.526963;0.526180;0.525626;0.523547;0.518063;0.521152;0.517105;0.513494;0.513830;0.514431;0.515625;0.515376;0.517844;0.512672;0.507738;0.514201;0.510646;0.507587;0.509980;0.509362;0.513502;0.504097;0.505754
0.553322;0.560303;0.558277;0.564388;0.574950;0.575028;0.583579;0.587037;0.589717;0.600597;0.601516;0.604641;0.606323;0.618148;0.620596;0.626089;0.629371;0.634551;0.638909;0.645313;0.647135;0.650847;0.660951;0.664577;0.673293;0.675960;0.678861;0.681471;0.683992;0.692365;0.693159;0.700862;0.697848;0.701603;0.703160;0.707557;0.710570;0.709014;0.712862;0.712349;0.713671;0.717398;0.712844;0.711613;0.713653;0.708738;0.709595;0.710805;0.713399;0.709680;0.705231;0.704948;0.698776;0.700339;0.694889;0.688855;0.691440;0.685189;0.684101;0.682871;0.676021;0.673981;0.671400;0.667160;0.661216;0.657487;0.652662;0.655299;0.649133;0.648470;0.642038;0.635149;0.632087;0.630999;0.629818;0.629051;0.622698;0.621299;0.620623;0.619796;0.613197;0.615518;0.611817;0.607720;0.609907;0.605640;0.608860;0.605604;0.607673;0.604712;0.608917;0.606055;0.605602;0.608349;0.608890;0.610765;0.608509;0.613922;0.608639;0.614429;0.615750;0.617387;0.612828;0.619785;0.621952;0.621201;0.624928;0.624974;0.626002;0.630271;0.626946;0.637442;0.633641;0.635308;0.637040;0.642480;0.649566;0.646738;0.651785;0.651215;0.656696;0.653188;0.656085;0.659291;0.661700;0.663226;0.668340;0.669906;0.674796;0.673372;0.673554;0.680876;0.682402;0.679280;0.684460;0.683332;0.694175;0.688955;0.690826;0.693175;0.694955;0.697301;0.699408;0.702268;0.697144;0.699361;0.704316;0.697640;0.707177;0.705730;0.705777;0.707241;0.702262;0.698348;0.703366;0.700575;0.698600;0.702928;0.699892;0.695128;0.696325;0.691726;0.688075;0.690696;0.687692;0.680242;0.680982;0.679676;0.672551;0.670683;0.663444;0.662639;0.656650;0.659790;0.649501;0.643888;0.643454;0.636577;0.629394;0.628860;0.626353;0.620199;0.619628;0.611259;0.608943;0.600114;0.595528;0.591348;0.590445;0.583084;0.586020;0.579875;0.574805;0.568324;0.568013;0.563980;0.560916;0.555859;0.553717;0.547722
