11012;10937;10864;10791;10720;10649;10579;10510;10442;10375;10309;10243;10179;10115;10052;9990;9928;9868;9808;9749;9690;9632;9575;9519;9463;9408;9353;9299;9246;9193;9141;9090;9039;8989;8939;8890;8841;8793;8745;8698;8651;8605;8560;8515;8470;8426;8382;8339;8296;8253;8211;8170;8129;8088;8048;8008;7968;7929;7890;7852;7814;7776;7739;7702;7666;7629;7593;7558;7523;7488;7453;7419;7385;7351;7318;7285;7252;7220;7188;7156;7124;7093;7062;7031;7001;6970;6941;6911;6881;6852;6823;6794;6766;6738;6710;6682;6654;6627;6600;6573;6546;6520;6494;6468;6442;6416;6391;6366;6341;6316;6291;6267;6243;6219;6195;6171;6148;6124;6101;6078;6055;6033;6010;5988;5966
0.0904614;0.07924793;0.06838787;0.05616387;0.04710177;0.04064842;0.0350601;0.03269432;0.03207766;0.03117928;0.0310928;0.03117822;0.03141364;0.03155747;0.03127161;0.03079692;0.03016781;0.0292226;0.02847674;0.0276413;0.02662629;0.02568601;0.02446654;0.02281403;0.02143957;0.02049484;0.01963005;0.0192609;0.01898434;0.01894357;0.0189757;0.01887969;0.01938412;0.01920061;0.02026723;0.02167613;0.02549153;0.02975513;0.03600174;0.0429768;0.05062656;0.05731463;0.06317559;0.06860173;0.07364812;0.07822528;0.08164272;0.08349708;0.08343375;0.08171807;0.07873546;0.07488897;0.07113431;0.06802856;0.06585319;0.0642208;0.06299212;0.06220897;0.06149931;0.06075298;0.05975589;0.05878727;0.05808921;0.05781047;0.0581955;0.05940212;0.0614607;0.06462459;0.06878418;0.07394736;0.0798215;0.08609222;0.09229639;0.09823934;0.1038054;0.1091047;0.1148187;0.122318;0.1327733;0.1467548;0.1640641;0.1840202;0.2052296;0.225567;0.2435742;0.2579893;0.2683202;0.2752084;0.2797171;0.282348;0.2836353;0.2838277;0.2827432;0.2809455;0.2788035;0.2759472;0.2728454;0.2699098;0.2667137;0.2638355;0.2614787;0.2593656;0.2576858;0.2564868;0.2554319;0.2544122;0.2534155;0.2520733;0.2501983;0.2478467;0.2448147;0.241273;0.2373194;0.2328503;0.2282346;0.2237055;0.2192432;0.2155786;0.2130159;0.2096789;0.2065237;0.2038768;0.2017999;0.2006358;0.2003186
0.09045342;0.07908268;0.06838721;0.05600293;0.04733071;0.04078831;0.03539708;0.032973;0.03222404;0.03127874;0.0312662;0.0313785;0.0317066;0.0319294;0.0315245;0.03105559;0.03062197;0.0295557;0.02871467;0.02794124;0.02688192;0.02589875;0.02474762;0.02315168;0.02178783;0.02079247;0.01998325;0.0196448;0.01932769;0.01925866;0.01934538;0.01916745;0.01974062;0.0195471;0.02060229;0.02195816;0.02576893;0.02999053;0.03627355;0.04320987;0.05078181;0.05742991;0.06325149;0.06867661;0.07368824;0.07819179;0.08160925;0.08342854;0.08339515;0.08174832;0.07867453;0.07494429;0.07119207;0.06814235;0.06596381;0.06435598;0.06314905;0.06233611;0.0616728;0.06089673;0.05989694;0.0589705;0.05831118;0.05798297;0.05838505;0.05956707;0.06164295;0.06476277;0.06888178;0.07400537;0.07982117;0.08599503;0.09216052;0.09808384;0.1035154;0.1087965;0.1143942;0.1218121;0.1321583;0.1459389;0.1630751;0.182891;0.2039718;0.224191;0.2421729;0.2565483;0.2669232;0.2737954;0.2783232;0.2810156;0.282296;0.2824728;0.281443;0.2796726;0.2774988;0.2746521;0.27156;0.2686101;0.265446;0.2626109;0.2602728;0.2581648;0.2565207;0.2553178;0.2542481;0.2532473;0.2522924;0.2509136;0.2490414;0.2467525;0.2437012;0.2401778;0.2362215;0.2317381;0.2271164;0.2226196;0.2181714;0.2144926;0.2119601;0.2086009;0.205457;0.2028409;0.2007638;0.1995924;0.1992555
0.09006547;0.07868616;0.06797022;0.05574703;0.04683325;0.04042171;0.03495723;0.03247762;0.03193657;0.03092898;0.03085581;0.0309196;0.03116929;0.03136659;0.03108367;0.03064735;0.03012461;0.02916279;0.02830324;0.02748359;0.02649635;0.02560467;0.02440366;0.02282194;0.02148237;0.0205469;0.01972143;0.0193809;0.01912904;0.01898984;0.01909755;0.01900258;0.01954556;0.01935145;0.02036899;0.02177798;0.02550661;0.02977237;0.03598057;0.04284546;0.05038267;0.05692048;0.06274595;0.06810737;0.07308613;0.077568;0.08092136;0.08271928;0.08264322;0.08103458;0.07802307;0.07424604;0.07057672;0.06754605;0.06538922;0.06376581;0.062498;0.06175297;0.06107952;0.06036937;0.05935899;0.0584225;0.05775755;0.05746331;0.05785622;0.05900598;0.06107574;0.06417979;0.06824877;0.07330175;0.07908224;0.0852048;0.09129187;0.09719369;0.1025913;0.1078343;0.1134126;0.12082;0.1310905;0.1448597;0.1619842;0.1818091;0.2028525;0.2231643;0.241178;0.2556827;0.266104;0.2730056;0.2776061;0.2802845;0.2815579;0.2817456;0.2807104;0.2789351;0.2767999;0.273908;0.2708109;0.2678363;0.2646325;0.2617761;0.2593994;0.2572832;0.2555706;0.2543814;0.2532725;0.2522517;0.2512781;0.2499301;0.2480505;0.2457267;0.242676;0.2391364;0.2351663;0.2306933;0.2260991;0.2215708;0.2171131;0.213431;0.2108653;0.2075558;0.2044298;0.2018486;0.1998462;0.1988067;0.1986481
0.0904369;0.07919342;0.06844185;0.05617893;0.04733686;0.04115191;0.03556623;0.03329819;0.03256844;0.03160324;0.0314991;0.03162931;0.03195212;0.03210684;0.03178567;0.0313225;0.03076426;0.02983782;0.02906428;0.02821008;0.0271704;0.02621995;0.02507363;0.02353577;0.02219238;0.02121483;0.02043791;0.02002099;0.01977597;0.01968774;0.0197759;0.01969705;0.02021819;0.02004891;0.02112906;0.0224248;0.02618467;0.03044022;0.03660212;0.04353761;0.05110808;0.05763926;0.06345779;0.06877039;0.07384691;0.07835273;0.08179952;0.08361517;0.08351947;0.08185521;0.07887359;0.07513236;0.071434;0.06846245;0.06624815;0.06465572;0.06346685;0.06274521;0.06202104;0.06130743;0.06029447;0.05937748;0.05868709;0.05843337;0.05880464;0.05997677;0.06206941;0.0651798;0.06929592;0.07437798;0.08017384;0.08636975;0.09247435;0.09835646;0.1038065;0.1090451;0.1146632;0.1220234;0.1323962;0.146182;0.1632654;0.1830231;0.2040411;0.2242401;0.2421545;0.256504;0.2668101;0.2736827;0.2782103;0.280903;0.2821696;0.2823673;0.2813646;0.2796345;0.2774819;0.2746568;0.2716225;0.2687117;0.2655639;0.2627482;0.2604457;0.2583841;0.2567375;0.2555695;0.2545291;0.253557;0.2526014;0.2512526;0.2494235;0.2471143;0.2441093;0.2405947;0.2366664;0.2322109;0.2276049;0.223076;0.2186268;0.2149528;0.2124633;0.2091088;0.2059641;0.2033457;0.2012924;0.2001698;0.1998979
0.09094663;0.07953134;0.06891327;0.05647369;0.04773716;0.04142762;0.03594832;0.03342241;0.03283755;0.03178892;0.03160384;0.0317292;0.03209932;0.03225812;0.0318664;0.03137721;0.03072579;0.02975479;0.02898911;0.02813767;0.02710062;0.02615423;0.02499427;0.02338018;0.02206056;0.02118256;0.02029971;0.01994499;0.01961731;0.0195381;0.01961816;0.01947054;0.02003604;0.01983193;0.0209203;0.02226508;0.02602421;0.03024288;0.03640783;0.04330735;0.05084035;0.0574121;0.06319498;0.0685851;0.07359538;0.07806781;0.08148231;0.08330469;0.08324496;0.08159377;0.07859074;0.07482694;0.07113903;0.06811921;0.06591531;0.06433225;0.063126;0.0623634;0.06164915;0.06094668;0.05994289;0.05899191;0.05837769;0.05804517;0.05844598;0.05960463;0.06168413;0.06481916;0.06886072;0.07398692;0.0798032;0.08596167;0.09208629;0.09794917;0.1034204;0.1086412;0.1142781;0.1216542;0.1319605;0.1457748;0.1628659;0.1826325;0.2036596;0.2238508;0.2418053;0.2561744;0.2665041;0.2734025;0.2779501;0.2805853;0.2818995;0.2820993;0.281035;0.2792956;0.2771509;0.2742719;0.2712077;0.2683032;0.2651097;0.2623168;0.2599511;0.2578977;0.2562259;0.2550617;0.2539795;0.2530162;0.252066;0.2507223;0.2488506;0.2465493;0.2435204;0.240017;0.2360951;0.2316338;0.2270454;0.2225585;0.2180929;0.214444;0.2119212;0.2085977;0.2054765;0.2028777;0.2007636;0.1995927;0.1992545
0.08919147;0.0782166;0.06780218;0.05563516;0.0471061;0.04090279;0.03550386;0.0330132;0.03248496;0.03146306;0.03142861;0.03152178;0.03191786;0.03217957;0.03183242;0.03144379;0.03087047;0.02995876;0.02915806;0.02823327;0.02720259;0.02629431;0.02518146;0.02365612;0.02237962;0.0213263;0.02042608;0.02014285;0.01980455;0.01965503;0.01977965;0.0196157;0.02009355;0.01997713;0.02102868;0.02240346;0.02613106;0.03038598;0.0364333;0.04325106;0.05078815;0.05728728;0.06303647;0.06835143;0.07326084;0.0777264;0.08112598;0.08288416;0.08286232;0.08132358;0.07838731;0.07462655;0.07096404;0.06793168;0.06572887;0.06405327;0.06285555;0.06205266;0.06134842;0.06063184;0.05961473;0.05861063;0.0579784;0.05766454;0.0580317;0.05911838;0.06113324;0.06416515;0.06818873;0.0732;0.07892165;0.08503316;0.0910684;0.09691951;0.1022971;0.1073581;0.1127992;0.1199152;0.1298258;0.1430576;0.1594315;0.1784874;0.198798;0.2182749;0.2355395;0.2493425;0.2592328;0.2657782;0.270072;0.2726076;0.2738245;0.2740021;0.2730322;0.2713439;0.2693469;0.2666796;0.2637404;0.2609505;0.2579012;0.2551683;0.2528726;0.2508928;0.249331;0.2481845;0.247162;0.2462299;0.2453088;0.2440476;0.2422187;0.2399944;0.2371462;0.233792;0.2300647;0.2258466;0.2215147;0.2172594;0.213045;0.2096147;0.2073076;0.2041759;0.2012307;0.1988205;0.196939;0.1959468;0.1957649
0.08867116;0.0775429;0.06717323;0.05520343;0.04647464;0.04014302;0.0348772;0.03234961;0.03173288;0.03077712;0.03070909;0.03092955;0.03136209;0.03157033;0.03124973;0.03072402;0.03016119;0.02931251;0.02849619;0.02768471;0.02670101;0.02573443;0.02457849;0.02298813;0.0216611;0.02070887;0.01983482;0.01946797;0.01917848;0.01913231;0.01914936;0.01896776;0.0194658;0.01933017;0.02043572;0.02174581;0.02553283;0.02971772;0.03588953;0.04267283;0.05029004;0.05679414;0.06262306;0.06794561;0.0728578;0.07740101;0.08080646;0.08260829;0.08256419;0.08096834;0.0780087;0.07426088;0.07055184;0.06750318;0.06528568;0.06364952;0.06241099;0.06162055;0.06095244;0.06022273;0.05917233;0.05824664;0.05755791;0.05727695;0.05761099;0.05872707;0.06074931;0.06380711;0.06785468;0.07290788;0.07868843;0.08482008;0.09091379;0.09680363;0.1022012;0.10732;0.1127801;0.1199153;0.1298653;0.1430778;0.159494;0.1784878;0.1986879;0.2180496;0.2351941;0.2488997;0.258719;0.2652018;0.2695239;0.2720431;0.2732539;0.2734591;0.2725254;0.2708881;0.2688809;0.2662642;0.2633546;0.2606103;0.2575879;0.2549005;0.2526611;0.2506981;0.2491254;0.2480162;0.2470097;0.2460654;0.245178;0.2439028;0.2421267;0.2399317;0.2370703;0.2337674;0.2300851;0.2258961;0.2215954;0.2173874;0.2132271;0.2098203;0.2075234;0.204439;0.2015206;0.1991268;0.1972449;0.1962494;0.1960553
0.08920778;0.07838863;0.0679593;0.05577352;0.04737114;0.0410493;0.03572261;0.0332507;0.0327118;0.03160146;0.03144135;0.03163132;0.03197603;0.03212559;0.03177001;0.03126286;0.03073485;0.02987993;0.02912603;0.02832063;0.02727236;0.02636427;0.02521284;0.02358231;0.02232974;0.02137781;0.02056266;0.02019889;0.01993882;0.01984648;0.01993053;0.01980611;0.0203057;0.02006187;0.02106825;0.02244448;0.02616866;0.03034568;0.03643334;0.04317746;0.0505629;0.0570234;0.06277761;0.06798611;0.07289857;0.07729852;0.08069831;0.08253901;0.08249687;0.08096299;0.07803962;0.0742614;0.0705797;0.06755938;0.06536855;0.06373051;0.06251576;0.06174753;0.06107612;0.06031853;0.05928928;0.0583601;0.05766851;0.05738457;0.05771618;0.05885077;0.06082891;0.06386509;0.06783354;0.07286793;0.07853257;0.08462639;0.09066228;0.09647483;0.1018163;0.1068984;0.1123198;0.1194126;0.1293339;0.142532;0.1589315;0.1778869;0.1981117;0.217508;0.2346442;0.2483908;0.2582342;0.2647607;0.2689987;0.2715249;0.2727244;0.2729362;0.2719475;0.2702856;0.2682731;0.26563;0.2627145;0.2599253;0.2569179;0.2542064;0.2519602;0.249973;0.2483805;0.2472797;0.2462521;0.2453158;0.2444025;0.2431222;0.241323;0.2391234;0.2362547;0.2329175;0.2292136;0.2249806;0.2206824;0.2164656;0.2122665;0.208824;0.2065031;0.2033892;0.2004687;0.1980454;0.1961405;0.1951209;0.1949021
0.08621109;0.07556282;0.06544857;0.05371937;0.04533644;0.03932684;0.03410662;0.03185531;0.0312096;0.03023125;0.03012296;0.0303298;0.0306864;0.03083083;0.03054286;0.03008274;0.02960288;0.02879283;0.02805337;0.02722794;0.02622691;0.02535279;0.02429115;0.02284312;0.02160637;0.02064732;0.01979404;0.01949068;0.0191991;0.01909058;0.01916311;0.01905516;0.019514;0.01941034;0.02039074;0.02178842;0.02536266;0.0293584;0.03526995;0.04179903;0.04897295;0.05514852;0.06077265;0.06582715;0.07054982;0.07484491;0.07807928;0.07976289;0.07975069;0.07828565;0.07550743;0.0719033;0.06838968;0.06550183;0.06340718;0.06182644;0.06063787;0.05989667;0.05927349;0.0585702;0.05761353;0.05670539;0.05601298;0.05575164;0.05609909;0.05716272;0.0590906;0.06204997;0.06586399;0.07068472;0.07614738;0.08200105;0.08777211;0.09335577;0.09848316;0.1033883;0.1085029;0.1153156;0.1247535;0.137349;0.1530179;0.1711867;0.1905671;0.2092026;0.2257724;0.2390584;0.2485763;0.2548956;0.2590838;0.2615278;0.262697;0.2629349;0.262002;0.260432;0.2585309;0.2559637;0.2531738;0.2504632;0.2475561;0.2449521;0.2427872;0.2408502;0.239323;0.2382898;0.2373;0.2364097;0.2355321;0.2342813;0.2325697;0.2304204;0.2276528;0.2244373;0.2208931;0.2168354;0.2127001;0.2085802;0.2045706;0.201252;0.1990735;0.1960854;0.1932429;0.1908904;0.1890132;0.1879583;0.187699
0.08881053;0.07764833;0.06722727;0.05536294;0.04675043;0.04045172;0.03503246;0.03255908;0.03203778;0.03111091;0.0311214;0.03122109;0.03157235;0.03180431;0.03147345;0.03109393;0.03056806;0.02969214;0.02883368;0.02797555;0.02706422;0.02612289;0.02496688;0.02345174;0.02219146;0.02122804;0.0203746;0.02001472;0.01976404;0.01967719;0.01975786;0.01959483;0.02007683;0.01995692;0.02100669;0.02238433;0.02606672;0.03028469;0.03629554;0.04311814;0.05050537;0.05692738;0.06271617;0.06800184;0.0729131;0.07735587;0.08064951;0.08241172;0.08246646;0.08091164;0.07798946;0.0742341;0.07058518;0.06765051;0.06540339;0.06378751;0.06257122;0.06185101;0.06115148;0.06039197;0.05943024;0.05849478;0.05782387;0.05751138;0.05784022;0.05897114;0.06097136;0.06400173;0.0679509;0.07294685;0.07861189;0.08467061;0.09066577;0.0964951;0.10176;0.1068587;0.1122423;0.1192942;0.1291763;0.1422677;0.1585578;0.1774172;0.1974724;0.2167902;0.233824;0.2474675;0.2572423;0.2637297;0.2679771;0.270498;0.271716;0.2719432;0.27098;0.2693793;0.2674078;0.2648235;0.2619248;0.2591906;0.2562181;0.2535384;0.2513064;0.2493804;0.2477922;0.2466715;0.2456856;0.2447572;0.2438673;0.2425949;0.2408488;0.2386257;0.2358302;0.2325124;0.2288354;0.224669;0.2203708;0.216157;0.2120171;0.2085984;0.2063293;0.2032015;0.2002933;0.1978896;0.1959613;0.1949411;0.1947059
0.08814871;0.07661677;0.06591681;0.05356188;0.04456965;0.0384345;0.03320673;0.03051071;0.03009066;0.02926878;0.02913658;0.02951901;0.02991948;0.02994883;0.02970875;0.02951985;0.02904503;0.02804449;0.02745447;0.02656502;0.02559705;0.02483452;0.02374544;0.02227334;0.02094781;0.02002819;0.0191022;0.01869402;0.01856289;0.0185155;0.0185424;0.01849199;0.01902884;0.01877292;0.019831;0.02122126;0.0249479;0.02908469;0.03516927;0.04203533;0.04945993;0.0559969;0.06190199;0.06725565;0.07231167;0.07685324;0.08022452;0.08201438;0.08191117;0.08027958;0.07726973;0.07343843;0.06977738;0.06668433;0.06456964;0.06296059;0.06179829;0.06101151;0.06038292;0.05965133;0.05865534;0.05770796;0.05704546;0.05683913;0.05715571;0.05822361;0.06026075;0.06333913;0.06742402;0.07246318;0.07825969;0.08439182;0.0905389;0.09645526;0.101923;0.1071763;0.1126973;0.1199396;0.1301154;0.1436865;0.1606206;0.1803818;0.2014951;0.2219406;0.2400819;0.2547089;0.2651706;0.27231;0.2769239;0.2797022;0.2810805;0.2813319;0.2803753;0.2786754;0.2766019;0.2738628;0.2708329;0.2679309;0.264772;0.2619263;0.2595237;0.2573802;0.2556942;0.2544672;0.2533766;0.2523262;0.2513553;0.2499338;0.2480317;0.2457269;0.2426761;0.2391657;0.2352232;0.2307793;0.2261565;0.2216024;0.2171749;0.2134585;0.2109184;0.2076067;0.2044832;0.2019914;0.2000677;0.1990934;0.1989645
0.08883014;0.07729877;0.0668519;0.05443034;0.04550957;0.03921849;0.03400138;0.03150261;0.03117022;0.03042703;0.03027714;0.03065476;0.03117889;0.03130829;0.03113529;0.03083804;0.0302889;0.02936553;0.02876506;0.02796;0.02705885;0.0263617;0.02510775;0.0236312;0.02224317;0.02138667;0.02045821;0.02005232;0.0199041;0.01982389;0.01988812;0.0198408;0.02041123;0.02015457;0.0211796;0.0225673;0.02630109;0.03049811;0.03667985;0.04353357;0.05102023;0.05754213;0.06346669;0.06883717;0.07391097;0.07842664;0.08184338;0.08359585;0.0834571;0.08184382;0.07878527;0.07498806;0.07142718;0.06833915;0.06625496;0.06462492;0.0634694;0.06273647;0.06208798;0.0613554;0.06042727;0.05943257;0.05881332;0.05851603;0.05889927;0.06001506;0.06203795;0.06509135;0.06919436;0.0742176;0.08000761;0.08613313;0.09221951;0.09807716;0.1034796;0.1086889;0.1141728;0.1213305;0.1313546;0.1447584;0.161456;0.1808999;0.2017198;0.2218736;0.2398022;0.2542836;0.2646259;0.2716767;0.2762714;0.2789966;0.2804046;0.2806483;0.2797292;0.2780234;0.2760266;0.2732801;0.2703442;0.2674915;0.2644162;0.2615806;0.2592563;0.2571548;0.2555398;0.2543278;0.2532263;0.2522269;0.2512576;0.2498886;0.2480177;0.2457322;0.2427626;0.2392962;0.2354012;0.2310335;0.2264785;0.221966;0.2175934;0.213927;0.2114414;0.2081745;0.2050735;0.2025988;0.2007055;0.1997421;0.1996258
0.08831436;0.07679784;0.06638338;0.05383938;0.04522534;0.03876471;0.03353995;0.03083638;0.03049672;0.02971069;0.02954819;0.02997405;0.03039777;0.03044561;0.03024738;0.029997;0.02946213;0.02847634;0.02788312;0.0271701;0.02612861;0.02531281;0.02428553;0.02284332;0.02147304;0.0205016;0.01959983;0.01921327;0.01913599;0.01906175;0.01906788;0.01900434;0.01956931;0.0193753;0.02037256;0.02170627;0.02546696;0.02967299;0.03571096;0.04264835;0.05006804;0.05663723;0.06249644;0.06795095;0.07300231;0.07753028;0.08096381;0.08270177;0.08261172;0.08096566;0.07793307;0.07407551;0.07051061;0.06745242;0.06539751;0.06376462;0.06258078;0.06182243;0.06117285;0.06046686;0.05949409;0.05854644;0.05788408;0.05765525;0.05803693;0.05912884;0.06118957;0.06425449;0.06836782;0.07341789;0.07924944;0.08539708;0.09154271;0.09745859;0.102864;0.1081141;0.1136551;0.1208666;0.1310006;0.1445157;0.1613096;0.1809209;0.2018308;0.22201;0.2399411;0.2544246;0.2647898;0.2718152;0.27639;0.27915;0.2805008;0.2807798;0.2798376;0.2781931;0.2761706;0.2734608;0.2704619;0.2676468;0.2645703;0.2617844;0.2594371;0.2573346;0.2557348;0.2545377;0.2534458;0.2524148;0.2514915;0.2500676;0.2482163;0.2459737;0.2429665;0.2394999;0.2356175;0.2312397;0.2266438;0.2221534;0.2177584;0.2141149;0.2115999;0.2083089;0.2052076;0.2027101;0.2007824;0.1997884;0.1996445
0.08967677;0.07814243;0.06779076;0.05529148;0.04657996;0.04001952;0.03494709;0.03237819;0.0318846;0.03105587;0.03096475;0.03130585;0.03174309;0.03189155;0.0316883;0.03128101;0.03076209;0.02974807;0.02916337;0.02836991;0.02728246;0.02653429;0.02541859;0.0238052;0.0224422;0.02161299;0.02062099;0.0202313;0.02011487;0.02001497;0.02003181;0.01997442;0.02050398;0.02028461;0.02130374;0.0226465;0.02642164;0.03061511;0.03671864;0.043686;0.05113482;0.05769316;0.06357899;0.06898451;0.07402056;0.07857034;0.08195247;0.08366513;0.08358271;0.08197549;0.07891114;0.07514085;0.07154743;0.0684261;0.06631027;0.064705;0.06349523;0.06273659;0.06206325;0.06137974;0.06040356;0.05943172;0.05876825;0.05853748;0.05889942;0.05997337;0.06201851;0.06509149;0.06917458;0.07421788;0.08002716;0.08617193;0.09227765;0.09817402;0.1035951;0.1087848;0.1142882;0.1215051;0.1315718;0.1450424;0.1618323;0.1813738;0.2023433;0.2225785;0.2405902;0.2551063;0.2655417;0.2725437;0.2772009;0.2799528;0.2813274;0.2815741;0.2805918;0.2789523;0.2769115;0.2741652;0.2711495;0.2683008;0.2651714;0.2623555;0.2599834;0.2578848;0.2562254;0.2550217;0.2539088;0.2529011;0.2519253;0.2505451;0.2486359;0.2463741;0.2433625;0.239887;0.2359691;0.2315892;0.2270014;0.2225091;0.2181167;0.214436;0.2119132;0.2086097;0.2055174;0.2030477;0.2011005;0.2001045;0.1999493
0.08828014;0.0767345;0.06627941;0.05385973;0.04523649;0.03887998;0.03388511;0.03123874;0.03076665;0.02998583;0.02981383;0.03009854;0.03052963;0.03069932;0.03051292;0.03024185;0.02985576;0.02872453;0.02812819;0.02735069;0.02645546;0.0255783;0.02456903;0.02301524;0.02174761;0.02088889;0.01993099;0.01956529;0.01949128;0.0194282;0.01938111;0.01935304;0.01990486;0.01965961;0.02069014;0.02201265;0.02572074;0.02988628;0.03592262;0.04270897;0.05012579;0.05662077;0.06240528;0.06779068;0.07273227;0.07722765;0.0806637;0.08237297;0.08223134;0.08067501;0.07766087;0.07389422;0.07034412;0.06723034;0.06518343;0.06358128;0.0624534;0.0616724;0.06105081;0.06032354;0.05935452;0.05840939;0.05777473;0.05750282;0.05790888;0.05896057;0.06098656;0.06399157;0.06807151;0.07302851;0.07880469;0.08488062;0.09094758;0.09672618;0.1021164;0.1073087;0.1127347;0.1198984;0.129879;0.1433011;0.1599967;0.1794816;0.2003201;0.2205374;0.238491;0.2529796;0.2633657;0.2703765;0.2750103;0.2777905;0.2791533;0.2793969;0.2784631;0.2767859;0.2747979;0.2720578;0.2690485;0.2661819;0.2630653;0.2602888;0.2578947;0.2557792;0.2541196;0.2529131;0.2518165;0.2508338;0.2498447;0.2484443;0.2465454;0.2442794;0.2412795;0.2377769;0.2338888;0.2295012;0.2249244;0.2203858;0.216037;0.2123275;0.2098161;0.2065372;0.2034469;0.2009881;0.1991158;0.1982153;0.1981411
0.09023964;0.07889543;0.06832197;0.05617806;0.04763308;0.04129098;0.03611154;0.0334481;0.03281777;0.03184428;0.03167776;0.03184351;0.0321575;0.03224868;0.03194958;0.0316081;0.03099877;0.03003053;0.02948748;0.02865174;0.02779795;0.02699456;0.02587261;0.02436158;0.02299793;0.02216792;0.0211296;0.0206832;0.02051658;0.02047648;0.02046271;0.02042091;0.02088512;0.02070734;0.02169701;0.02300484;0.02670419;0.03089629;0.0368435;0.04359618;0.05092282;0.05736505;0.06324863;0.06859975;0.07359015;0.07802502;0.08135694;0.08297467;0.08284659;0.08123463;0.07821998;0.07438918;0.07081118;0.0677224;0.06555909;0.06389374;0.06265385;0.06191276;0.06125634;0.06059257;0.05956323;0.05860157;0.05793139;0.05766138;0.05800183;0.05902325;0.06100835;0.06399591;0.06801203;0.07295809;0.07867993;0.08481805;0.0908925;0.09677238;0.1021456;0.1073014;0.1127318;0.1198471;0.1297815;0.1429906;0.1594617;0.1786981;0.1992454;0.2191541;0.2367;0.2508779;0.2609869;0.2677954;0.2723035;0.2749292;0.2762588;0.2765084;0.2756067;0.2741054;0.2721606;0.2695629;0.2666757;0.2639002;0.2608116;0.2580135;0.2556168;0.253463;0.2517515;0.2504889;0.2493462;0.2482394;0.247259;0.2458391;0.2439449;0.2416834;0.238702;0.2352751;0.2314666;0.2272159;0.2227594;0.2183988;0.2141233;0.2105444;0.2081223;0.204944;0.201978;0.1996145;0.1978462;0.1971144;0.1971754
0.09095319;0.0797461;0.06926496;0.05692048;0.04831139;0.0419338;0.03671172;0.03413581;0.03349179;0.0325671;0.03246304;0.03269648;0.03313482;0.03326293;0.03295009;0.03265624;0.03209985;0.03109159;0.03050035;0.02973271;0.02877158;0.02793632;0.0267774;0.02528311;0.0239201;0.02294973;0.02202816;0.02158366;0.02142456;0.02128338;0.02126533;0.02112646;0.02164428;0.02144599;0.02246458;0.02382885;0.02754447;0.03180428;0.03789303;0.04471161;0.05217789;0.0587596;0.06470455;0.07011063;0.07515243;0.07970945;0.0830121;0.08469711;0.08453149;0.08290394;0.07983715;0.07595331;0.07229176;0.0692398;0.06702667;0.06542765;0.06414514;0.06341297;0.06271741;0.0620113;0.06105858;0.06003439;0.05941398;0.05914785;0.05943386;0.06050899;0.06250694;0.06553317;0.06956954;0.07459897;0.0803719;0.08654226;0.09261399;0.09853211;0.1039546;0.1091033;0.1145543;0.1216845;0.1315731;0.1447706;0.1611718;0.1802243;0.2006451;0.220309;0.2377803;0.2518301;0.2618945;0.268673;0.2731338;0.2758367;0.2771734;0.277429;0.2765728;0.2750693;0.2732039;0.2706629;0.2678108;0.2651131;0.2620905;0.2593225;0.256956;0.2548168;0.2531528;0.251918;0.2507577;0.2497164;0.2487525;0.2473439;0.2454661;0.2432506;0.2403089;0.2368919;0.23315;0.2288924;0.2244952;0.2201501;0.2159454;0.2123883;0.2099706;0.2068389;0.2038546;0.2015006;0.1997584;0.1990255;0.199053
0.08871596;0.07741069;0.06737605;0.05516486;0.04669229;0.04027854;0.03520256;0.03274086;0.03206449;0.03115999;0.03099081;0.03113609;0.03154423;0.0316946;0.03141624;0.03113064;0.03061122;0.0296392;0.02913582;0.02833132;0.02734526;0.02655414;0.02556335;0.02405453;0.02265999;0.02177029;0.02086866;0.02047424;0.02027905;0.0201854;0.020216;0.02014309;0.02061384;0.02040221;0.02135677;0.022679;0.0263824;0.03046206;0.03641664;0.04306076;0.05027751;0.05668999;0.06243258;0.06775507;0.07268401;0.07709591;0.08041066;0.08197885;0.08187224;0.08025607;0.07730037;0.07353213;0.06998087;0.06700656;0.06486778;0.06325051;0.06205359;0.06130399;0.06066338;0.05999362;0.0590517;0.05808057;0.05744533;0.05718849;0.05751871;0.05852919;0.06050254;0.06343692;0.06742141;0.07231452;0.07794261;0.08396807;0.08996668;0.09575053;0.1010519;0.1060972;0.1113931;0.1184011;0.1281131;0.1410557;0.1571582;0.175899;0.1960029;0.2153981;0.232579;0.2464308;0.2563736;0.2631119;0.2674925;0.2701453;0.2715243;0.2717907;0.2709539;0.2695377;0.2676583;0.2651783;0.2623913;0.2596775;0.2567379;0.2539811;0.2516543;0.2495685;0.2479197;0.2466905;0.2455761;0.2445324;0.2435707;0.242188;0.2403555;0.2381735;0.2352709;0.2319315;0.2282262;0.2240461;0.219713;0.2154222;0.2112451;0.2077541;0.2054211;0.2023229;0.1993865;0.1970575;0.1953347;0.1946111;0.1946357
0.08974987;0.0785646;0.06800678;0.05603114;0.04735813;0.04126847;0.03580636;0.03318636;0.03258814;0.03178357;0.03161255;0.0318522;0.03214142;0.03227405;0.03214635;0.03183652;0.03136282;0.0303112;0.02972938;0.02890687;0.02792917;0.02713057;0.02598143;0.02445883;0.02315058;0.02222463;0.02125943;0.0208489;0.02065879;0.02056181;0.02050107;0.02046722;0.02092609;0.02070708;0.02169918;0.02304989;0.02678604;0.03101569;0.03703754;0.0438252;0.05126247;0.05777722;0.06373264;0.06907771;0.07413319;0.07859679;0.08195405;0.08359404;0.0834524;0.08185481;0.07879118;0.07497041;0.07134512;0.06823693;0.06608457;0.06443164;0.06320243;0.06242068;0.06180058;0.06107267;0.06012395;0.05912476;0.05850627;0.05822093;0.05854876;0.05960075;0.06163623;0.06461427;0.06868229;0.07366063;0.07941813;0.0855534;0.09166539;0.09754492;0.1029145;0.1080865;0.1135173;0.1206197;0.1305285;0.1436367;0.1600033;0.1790209;0.1993358;0.2189518;0.2363536;0.2503629;0.2603581;0.267191;0.2716418;0.2743205;0.2756668;0.2759642;0.2751411;0.2736501;0.2718576;0.2693052;0.2665052;0.2638493;0.2608357;0.2580954;0.2557861;0.253681;0.2520183;0.2508023;0.2496894;0.2486277;0.2476775;0.2463175;0.2444662;0.2422618;0.2393225;0.2359839;0.2322668;0.2280401;0.2236884;0.219375;0.2151658;0.2116566;0.2093094;0.2062125;0.2032375;0.2008769;0.1991378;0.1983787;0.1983774
0.09123851;0.07984754;0.06932024;0.05695816;0.04821301;0.04184099;0.03664804;0.03381929;0.03323132;0.03244013;0.03229811;0.03254835;0.03293289;0.03304693;0.0328807;0.03256102;0.0320164;0.03097194;0.03033387;0.02952524;0.02853972;0.02787428;0.02668505;0.02512227;0.02371814;0.02273913;0.02180414;0.02136533;0.02115212;0.02107204;0.02109937;0.02096644;0.02148986;0.02125247;0.02227104;0.02360504;0.02740597;0.03170499;0.03783261;0.04476802;0.05219443;0.05888698;0.06486726;0.07038352;0.07545736;0.08008299;0.08345234;0.08509207;0.08494623;0.08330968;0.08023281;0.07632671;0.07268783;0.06956205;0.06733958;0.06570124;0.06448866;0.06369529;0.06301651;0.06232513;0.06133919;0.06032807;0.05968091;0.059383;0.0597477;0.06077403;0.06285456;0.06591193;0.06998518;0.07505083;0.08086119;0.08709183;0.09327722;0.09923151;0.1046901;0.1099098;0.1153814;0.1225948;0.1325814;0.1459066;0.1624699;0.1817777;0.202383;0.2223098;0.2399589;0.2542214;0.2643853;0.271266;0.2757877;0.2785042;0.2798927;0.2801815;0.2793311;0.2778232;0.2759548;0.2733551;0.2705362;0.2677524;0.2647467;0.2619301;0.259575;0.2574421;0.2557692;0.2545382;0.2533989;0.2523082;0.2513403;0.249945;0.2480816;0.2457987;0.2428455;0.2394325;0.2356392;0.2313324;0.2268923;0.2224713;0.2181915;0.2145886;0.2121722;0.2089819;0.2059754;0.2036115;0.2018405;0.2011203;0.2011713
0.08992676;0.07865058;0.06873231;0.05645387;0.04789368;0.04139515;0.03628734;0.03376437;0.03314655;0.03232022;0.03218824;0.0324001;0.03269284;0.03278075;0.03263593;0.03230097;0.03165437;0.03066505;0.0301275;0.02925465;0.02823858;0.02748941;0.02635235;0.02492745;0.02356067;0.02253697;0.02163212;0.02125014;0.02103657;0.0209533;0.02095761;0.02086389;0.02134456;0.02111933;0.0221462;0.02347532;0.02716339;0.03131192;0.03740847;0.04419213;0.05159003;0.0580669;0.06387107;0.0691754;0.07408743;0.07850882;0.08183222;0.08351047;0.08337141;0.08177605;0.07883375;0.07499389;0.07145201;0.06834482;0.06624302;0.06461773;0.06343505;0.06264766;0.06197268;0.0613135;0.06035735;0.0593548;0.0587712;0.05850327;0.05886652;0.05993411;0.06193926;0.06495605;0.06897704;0.07395209;0.07968846;0.08574142;0.09171957;0.0975242;0.1028548;0.1079535;0.113403;0.1205253;0.1304302;0.143618;0.1600024;0.1791692;0.1995552;0.2193101;0.23674;0.2508723;0.260934;0.2677424;0.2722098;0.2748559;0.2761616;0.276395;0.27549;0.2738475;0.2718711;0.2692192;0.2663035;0.2635146;0.2604342;0.2576225;0.2552192;0.2531088;0.2514217;0.2501923;0.2490436;0.2480018;0.2469876;0.2455916;0.2437156;0.2414725;0.2385105;0.2351327;0.2313347;0.2270725;0.2226593;0.2182983;0.2140567;0.2105267;0.2081355;0.2050072;0.2019963;0.1996087;0.1977455;0.1968446;0.1967514
0.09076181;0.07941248;0.06910463;0.05692106;0.04816055;0.04210928;0.03698601;0.03425293;0.03367805;0.03286975;0.03271256;0.0329491;0.0333222;0.03339196;0.03310812;0.03291785;0.03254234;0.03136873;0.0307435;0.03001178;0.02897541;0.0281563;0.02704453;0.02553182;0.02417881;0.02324461;0.02233025;0.02187078;0.02165313;0.02159142;0.02161573;0.02154419;0.02204307;0.02179143;0.02275799;0.02411512;0.0278228;0.03203963;0.03808781;0.04490636;0.05225855;0.0587632;0.0646346;0.06993125;0.07490247;0.07935303;0.08266001;0.08431774;0.08421878;0.08263788;0.07967209;0.07582631;0.07226034;0.06918161;0.06702631;0.06542841;0.06419749;0.06343837;0.06279188;0.06205898;0.06110673;0.06014826;0.05950278;0.05923418;0.05958112;0.06067478;0.06273112;0.06573247;0.06976642;0.07475489;0.0804885;0.0865422;0.09259446;0.09841552;0.1037615;0.1088727;0.1143236;0.1214132;0.1313563;0.1445476;0.1609211;0.1800521;0.2004451;0.2201278;0.237573;0.251644;0.2617079;0.2684876;0.2729472;0.2756097;0.2769511;0.277209;0.276311;0.2747295;0.2727517;0.2701211;0.2672011;0.2643983;0.2613373;0.2585514;0.2562152;0.2540726;0.2524364;0.2511945;0.2500448;0.2489948;0.2480242;0.2466588;0.2447684;0.2425149;0.2395872;0.2361927;0.2324134;0.2281519;0.2237403;0.2193957;0.2151443;0.2116059;0.2092252;0.2060826;0.2030929;0.2007495;0.1989711;0.1982061;0.1982142
0.08959373;0.0784112;0.06816136;0.05603343;0.04748638;0.04126465;0.03609712;0.03352142;0.03300217;0.03222378;0.03208389;0.03234839;0.03274896;0.03283778;0.03256276;0.03225908;0.03179316;0.0307821;0.03017869;0.02935882;0.02844343;0.02767406;0.02651539;0.02504828;0.02374101;0.02277185;0.02187797;0.02145608;0.02129475;0.02122178;0.02117703;0.02112134;0.02159593;0.02135919;0.02238001;0.02374746;0.02746137;0.0316053;0.03769852;0.04444426;0.05179923;0.05831136;0.06407494;0.0694141;0.07432092;0.07877903;0.08205987;0.08373137;0.08361639;0.08201733;0.0790384;0.0752441;0.07163733;0.06863574;0.06649978;0.06486376;0.06372628;0.06298014;0.06232074;0.0616267;0.06070894;0.05971563;0.05908117;0.0588458;0.05922249;0.06026093;0.06232586;0.06533304;0.0693714;0.07432412;0.08002085;0.08603776;0.09205207;0.09783466;0.103145;0.1082395;0.1136514;0.1207161;0.1305479;0.1436365;0.1598785;0.1786998;0.1987836;0.2181406;0.2352733;0.2491061;0.2589358;0.2656375;0.2699907;0.2726055;0.2739308;0.2741985;0.2733452;0.2717504;0.2698835;0.2672949;0.2644622;0.2617868;0.2588008;0.2560616;0.2537546;0.2517024;0.2500732;0.2488973;0.247782;0.2467601;0.2458087;0.244426;0.2425833;0.240406;0.2375216;0.2341941;0.230503;0.2263201;0.2220111;0.217732;0.2135538;0.2100849;0.2077534;0.2046422;0.201713;0.1993649;0.1976116;0.1968212;0.1968246
0.0909312;0.07968327;0.06915952;0.05722631;0.04848982;0.04209833;0.03684287;0.03432274;0.03387136;0.03309765;0.03292711;0.03314139;0.03361656;0.03378985;0.03357718;0.03326827;0.0327569;0.03170368;0.03109144;0.03027971;0.02926573;0.02847786;0.02739263;0.02595627;0.02450591;0.02351089;0.02260359;0.02220759;0.02205195;0.02197208;0.021979;0.02188989;0.022347;0.02216406;0.02316425;0.02455011;0.02824209;0.03253251;0.03861203;0.0455024;0.05299835;0.05965059;0.06547323;0.07094272;0.07593823;0.08048198;0.08383387;0.08560927;0.08548285;0.08389674;0.08083417;0.07696888;0.07333723;0.07033497;0.06814558;0.06648378;0.06525036;0.0645115;0.06386147;0.06316981;0.0622075;0.06121836;0.06059078;0.06033409;0.06069843;0.06185178;0.06386922;0.06695436;0.07105377;0.07612903;0.08191562;0.08806471;0.09417085;0.100047;0.1054244;0.110603;0.1160559;0.1232164;0.1331151;0.1462923;0.1626379;0.1815418;0.2016505;0.2209941;0.2380815;0.2518499;0.2616355;0.2682769;0.2726443;0.2752257;0.2765557;0.2768202;0.2759562;0.2744427;0.2725318;0.2699674;0.2671884;0.2645032;0.261516;0.2588238;0.2565887;0.2545056;0.252899;0.2517212;0.2506156;0.2496381;0.2486623;0.2473372;0.2454758;0.2433271;0.2404533;0.2371437;0.2334771;0.2293106;0.2250022;0.2207497;0.2165899;0.2131269;0.2108142;0.2077323;0.2047993;0.2024945;0.2007828;0.2001142;0.2001962
0.09167276;0.08061116;0.07051771;0.05851517;0.04980439;0.0434423;0.03824442;0.0359477;0.0353647;0.03472381;0.03466034;0.03485827;0.03525252;0.03537269;0.03516319;0.03487469;0.03424796;0.03337701;0.03284085;0.03192482;0.03096464;0.03015576;0.02909441;0.0275622;0.02623815;0.02537077;0.02436736;0.02392005;0.02376742;0.02369318;0.02364874;0.0235974;0.02406459;0.02379757;0.02480362;0.0261744;0.02994746;0.03413397;0.04019606;0.04707307;0.05451957;0.0610813;0.06685148;0.0722269;0.0772097;0.08162148;0.08499449;0.08667025;0.08654873;0.08496773;0.08205047;0.07822133;0.07463732;0.071595;0.06947461;0.06786199;0.06666873;0.06594175;0.06528021;0.06459638;0.06364156;0.06266238;0.0620824;0.06181034;0.06218364;0.06328698;0.06535676;0.06840052;0.07241985;0.0774048;0.08320617;0.08928787;0.09525754;0.1010968;0.106449;0.1115301;0.1169831;0.1240358;0.1338874;0.1469649;0.1631824;0.1819727;0.2019618;0.2211959;0.2382373;0.2519617;0.2617464;0.2683872;0.2727341;0.275335;0.276662;0.2769243;0.2760357;0.2745458;0.2726521;0.2701439;0.2673242;0.2646747;0.2617044;0.2590586;0.2568066;0.2547878;0.2531589;0.2519981;0.2509502;0.249923;0.2490232;0.2476438;0.245846;0.2437058;0.2408423;0.2375574;0.2338995;0.2297563;0.2254818;0.2212338;0.2170821;0.2136402;0.2113625;0.208295;0.2053301;0.2029943;0.2011696;0.2002836;0.2001849
0.08534844;0.07429928;0.0642;0.0523654;0.04396657;0.03790816;0.03281179;0.03017619;0.02959478;0.02880323;0.0287028;0.0288947;0.02935685;0.02947474;0.02908911;0.02883621;0.02830889;0.02726623;0.02670024;0.02587763;0.02497432;0.02420675;0.02322789;0.0217361;0.02036855;0.01950734;0.0186173;0.0182451;0.01811001;0.01800132;0.01802392;0.01792752;0.01831087;0.01809359;0.01914258;0.02036225;0.02393447;0.02789519;0.03373071;0.04032093;0.04745319;0.0537846;0.05941568;0.06455772;0.06934416;0.07376686;0.07702279;0.07885014;0.07884359;0.077438;0.07457977;0.07091074;0.06738575;0.06438367;0.06232787;0.06073427;0.05958026;0.05882546;0.05817572;0.05745813;0.05647349;0.05552839;0.05487087;0.05462072;0.05494618;0.05596951;0.05790614;0.06086129;0.06477631;0.06955837;0.07515979;0.08109689;0.08694927;0.09260353;0.09786279;0.1027727;0.1080285;0.1148582;0.12437;0.1371153;0.1530781;0.1717199;0.1918204;0.2112476;0.2285418;0.2424411;0.2523543;0.2590691;0.263401;0.265963;0.2671656;0.2673508;0.266364;0.2646729;0.2626542;0.2599676;0.2570328;0.2542618;0.2512456;0.2485794;0.2463093;0.2442989;0.2427441;0.2416634;0.2406284;0.2396944;0.2388072;0.2374726;0.2356623;0.2335265;0.2306806;0.2273487;0.2236578;0.2194988;0.2151756;0.2108826;0.2067316;0.2032703;0.2009365;0.1978516;0.1949457;0.192665;0.1909316;0.1902534;0.1903664
0.08608141;0.07518861;0.06492723;0.05290879;0.04473014;0.03852811;0.03347651;0.03096024;0.0303737;0.02955019;0.02941842;0.02965027;0.02997265;0.03004797;0.02986135;0.02960778;0.02904007;0.02797647;0.02738571;0.02653549;0.02561445;0.02478559;0.02372565;0.02240963;0.02103602;0.02010031;0.01920977;0.01885535;0.01870761;0.01861644;0.01861168;0.01847045;0.01894898;0.01871516;0.01970805;0.02090758;0.02447243;0.02846426;0.0342921;0.04087488;0.04807808;0.05440588;0.05999267;0.06516036;0.06994266;0.07434866;0.07770446;0.07951856;0.079469;0.07804346;0.07516257;0.07148213;0.06793357;0.0649741;0.06289796;0.06129136;0.06012251;0.05937855;0.05869036;0.05793425;0.05698373;0.0560281;0.05544204;0.05513609;0.05544977;0.0564637;0.05838697;0.06131806;0.06522607;0.07006051;0.07563964;0.08155179;0.08746275;0.09313791;0.09833694;0.1032857;0.1085218;0.1153378;0.1248557;0.1376551;0.1536316;0.1723522;0.1924727;0.2120222;0.2293733;0.2433754;0.2533568;0.2601094;0.2644097;0.2669863;0.2682533;0.2684404;0.2674714;0.2657754;0.2637295;0.261;0.2581021;0.2553281;0.2523031;0.2495807;0.2473169;0.2453394;0.2437675;0.2426895;0.2416759;0.2407729;0.2398559;0.2385275;0.2367489;0.234565;0.2317053;0.2283574;0.2246531;0.2204838;0.2161036;0.2118089;0.2076097;0.204087;0.2017195;0.1985871;0.195623;0.1932528;0.1914472;0.1906117;0.1905406
0.08536191;0.07419642;0.0642973;0.05275637;0.04434276;0.03834293;0.03335997;0.03084276;0.03026181;0.02944326;0.02943565;0.02975535;0.03012251;0.03026229;0.03004712;0.02974705;0.02931969;0.02820394;0.02764879;0.02693096;0.02603152;0.02522811;0.02420412;0.02271275;0.02144849;0.02064188;0.01969663;0.01928294;0.01911932;0.01901389;0.01901456;0.01897278;0.01939333;0.0191458;0.02013541;0.02144449;0.0249469;0.02893315;0.034717;0.04133486;0.0484599;0.05474361;0.06036448;0.06545577;0.07023385;0.07456463;0.0779183;0.07965599;0.0796595;0.07826858;0.07541151;0.07174929;0.06834182;0.06534294;0.06330989;0.0617191;0.06056423;0.05983283;0.05918225;0.05846035;0.05754032;0.0565466;0.05594688;0.05569223;0.05601422;0.05705804;0.05898966;0.06189152;0.06579236;0.07058289;0.07614089;0.0820317;0.08784576;0.0934822;0.09860321;0.1035318;0.108673;0.1154137;0.124816;0.137415;0.1531188;0.17153;0.1912988;0.2104484;0.2274762;0.2412042;0.2510006;0.2576305;0.2618493;0.2644185;0.2656828;0.2658722;0.2649;0.2633076;0.2613384;0.2587388;0.2558735;0.2531602;0.2502037;0.247556;0.2453245;0.2433848;0.241893;0.2408386;0.2398501;0.2389425;0.2381094;0.2368173;0.2350603;0.2329438;0.2300943;0.226868;0.2232534;0.2191418;0.2148853;0.2106619;0.2065544;0.2031615;0.2008905;0.1978499;0.1949457;0.1926462;0.1908629;0.1900243;0.1899827
0.08527673;0.07452812;0.06430195;0.05260974;0.04434578;0.03811841;0.03330348;0.03086716;0.03018093;0.02940493;0.02931444;0.02954636;0.02993282;0.03007761;0.0298727;0.029579;0.02915914;0.02804887;0.02750096;0.02676683;0.02582074;0.02500783;0.02395693;0.02251391;0.02120518;0.02040657;0.01948899;0.01912147;0.01898056;0.018903;0.01886584;0.01882925;0.01922281;0.01905806;0.0200021;0.02123566;0.02479058;0.02881649;0.03460119;0.04114364;0.04834438;0.05463287;0.06018014;0.06530692;0.07012078;0.07456236;0.07788249;0.07965551;0.0796595;0.07823907;0.07535113;0.07166142;0.0681948;0.06525739;0.06320002;0.06161189;0.0604341;0.0596814;0.05901004;0.05829304;0.0573549;0.05638783;0.05574905;0.0554996;0.05580514;0.05687387;0.05878849;0.06171446;0.06565633;0.07046681;0.07602518;0.0819357;0.08780751;0.09346317;0.0986223;0.1035319;0.1087491;0.1154902;0.1249131;0.1374747;0.1531599;0.1714882;0.191104;0.210095;0.2269574;0.240542;0.2502218;0.2567262;0.2609731;0.2634666;0.2647056;0.2648932;0.2639632;0.2623301;0.2603853;0.2578264;0.2550196;0.2523039;0.2494033;0.246771;0.2445695;0.2426418;0.2411619;0.2401171;0.2391412;0.2382541;0.2373791;0.2360974;0.2343031;0.2322333;0.2294537;0.2262499;0.2226598;0.218588;0.2143725;0.2101926;0.2060888;0.2027272;0.2005007;0.197467;0.1945648;0.1922763;0.1904947;0.1896116;0.1895346
0.08828475;0.07719766;0.06711263;0.05481322;0.04649703;0.04008883;0.03493079;0.03248828;0.0317444;0.03098363;0.03092926;0.03120115;0.03155602;0.03164714;0.03145061;0.03112283;0.03054343;0.02953294;0.02889901;0.02809626;0.02724215;0.02642261;0.02529803;0.0237597;0.02241;0.02159633;0.02072065;0.02031928;0.02016897;0.02005569;0.02000778;0.0199122;0.02042073;0.02018334;0.02114345;0.02237967;0.02598474;0.03003297;0.03595488;0.04271198;0.04997345;0.05642919;0.06213998;0.0674632;0.07232407;0.07687216;0.08025964;0.08208507;0.08203721;0.08055017;0.07767873;0.07388785;0.07034803;0.0673103;0.06518529;0.06353954;0.06236083;0.06157925;0.06090786;0.06018237;0.05916706;0.05819826;0.05757783;0.05727923;0.05760713;0.05863927;0.06068581;0.06366228;0.06767794;0.07262435;0.07830771;0.08436243;0.09040298;0.09621066;0.101528;0.1065964;0.111929;0.1188866;0.1285831;0.1415614;0.1577158;0.1765997;0.1968359;0.2163566;0.2336643;0.2475972;0.257468;0.2641796;0.2685253;0.2710871;0.2723427;0.2725591;0.2716083;0.2699788;0.2679722;0.265346;0.2624452;0.2597276;0.2567538;0.2540744;0.251854;0.2498573;0.2483439;0.2472411;0.2462549;0.2453157;0.2444561;0.2431574;0.2413723;0.2392084;0.2363532;0.2330579;0.2293778;0.2252;0.220864;0.2165934;0.2123966;0.208905;0.206587;0.2034389;0.2004882;0.1980844;0.1962218;0.1952614;0.1951281
0.08975196;0.07829934;0.06784557;0.05551688;0.04655307;0.04015331;0.03523673;0.03283298;0.0323379;0.03146856;0.03135424;0.03165463;0.03213404;0.03231308;0.03211552;0.03184892;0.03142811;0.03039285;0.02981105;0.02908431;0.02803206;0.02721666;0.02615793;0.02468622;0.02327777;0.02236386;0.02143874;0.02106598;0.02094649;0.02082503;0.02088687;0.02087804;0.02135689;0.02122376;0.0222818;0.02360663;0.02735065;0.03156979;0.03769977;0.04457007;0.0520555;0.05860977;0.06445278;0.06986913;0.0748773;0.07938786;0.08282162;0.08447877;0.08437975;0.08276596;0.07974356;0.07591971;0.0722992;0.06926329;0.06719247;0.0655366;0.06435781;0.06358159;0.06294105;0.06221141;0.0612647;0.06028363;0.05962572;0.0593917;0.0597338;0.06082005;0.062883;0.06596421;0.07003725;0.07508238;0.08086414;0.08703453;0.09317429;0.09907035;0.1045033;0.1097117;0.1152489;0.1224861;0.1326519;0.1462038;0.163076;0.1827382;0.2037536;0.2240766;0.2421217;0.2566389;0.2670204;0.274044;0.2786283;0.281352;0.2826983;0.2829264;0.2819729;0.2802979;0.2782422;0.2755436;0.2725337;0.2696661;0.2665418;0.263687;0.2612947;0.2591423;0.2574505;0.2562441;0.2550712;0.2540442;0.2530564;0.251636;0.2497237;0.2474269;0.2443874;0.2408987;0.2369946;0.2325414;0.2279518;0.2234191;0.2190509;0.2153763;0.2128467;0.2095471;0.2065087;0.2040826;0.2022574;0.2014661;0.2014516
0.08726566;0.07602693;0.06575764;0.05357643;0.0449993;0.03884076;0.03380803;0.03130228;0.03087148;0.03022833;0.03014193;0.03051617;0.03099064;0.03108859;0.03089646;0.03061996;0.03009031;0.02905135;0.02846931;0.02779403;0.02679194;0.02600747;0.02494834;0.02359944;0.02223875;0.02126582;0.02039903;0.02003056;0.01988684;0.01983192;0.0198401;0.01978812;0.02030019;0.02016222;0.02124151;0.02247233;0.02621598;0.03041077;0.03647833;0.04320697;0.05055219;0.05708305;0.06287214;0.06816016;0.07311694;0.07758338;0.0809067;0.08257131;0.0824566;0.08091933;0.07789663;0.07413545;0.07063158;0.06759851;0.06555172;0.06391943;0.06273334;0.06197831;0.06133044;0.0606246;0.05967664;0.05871803;0.05809784;0.05790729;0.05821998;0.05929633;0.06132204;0.06434789;0.06837964;0.07332169;0.07903266;0.08509041;0.0910997;0.09688314;0.1022108;0.1073156;0.1127159;0.119817;0.1296751;0.1428828;0.1591716;0.1781554;0.198419;0.2180656;0.2353953;0.2493858;0.2594011;0.2661648;0.2706028;0.2732358;0.2745763;0.2748156;0.2738924;0.272328;0.270396;0.2677485;0.2648837;0.2621344;0.2591062;0.2563939;0.2540885;0.2520232;0.2503918;0.2491958;0.2480983;0.2470916;0.2461527;0.2447648;0.2429186;0.2406992;0.237811;0.2344117;0.230662;0.2264002;0.2220023;0.2176414;0.2134006;0.2098513;0.2074777;0.2042875;0.201302;0.1989689;0.197151;0.1962413;0.1961538
0.08994209;0.07845331;0.06769214;0.05536093;0.04651345;0.04038421;0.03529293;0.03285315;0.03226051;0.0314276;0.03129278;0.03161108;0.03202963;0.03212801;0.03194921;0.0316501;0.03113509;0.0301152;0.02952966;0.02864221;0.02771101;0.02693841;0.02580613;0.02433469;0.02305805;0.02218127;0.02121608;0.02083438;0.02067092;0.02052595;0.02059225;0.02055396;0.02104102;0.02087526;0.02189929;0.02324198;0.02707084;0.03117381;0.0372337;0.04407053;0.05148393;0.05804323;0.06385532;0.0692801;0.07422111;0.0788148;0.08214905;0.08389177;0.08374842;0.08217289;0.0791738;0.07533768;0.07176629;0.06869291;0.06655492;0.06497126;0.06375559;0.06297123;0.06229682;0.06158652;0.06065712;0.05966931;0.05900582;0.0587666;0.05912271;0.06020068;0.06225431;0.06530426;0.06936581;0.0743589;0.08018256;0.08635534;0.09245735;0.09835374;0.1037901;0.1089818;0.1144992;0.1217299;0.1318421;0.1453307;0.1621545;0.1817015;0.2026147;0.2228229;0.2407045;0.2551561;0.2654401;0.2724275;0.2770266;0.2797238;0.2810683;0.2813767;0.2804147;0.2787775;0.2767363;0.2740513;0.2711173;0.2683126;0.2651801;0.2623545;0.2600037;0.2578917;0.2562332;0.2550124;0.2538916;0.2528629;0.2519029;0.2504805;0.2485672;0.2463046;0.2433087;0.2398057;0.235938;0.2315407;0.2269459;0.2224767;0.2180854;0.214422;0.2119159;0.2086194;0.2055769;0.2031785;0.2013361;0.2005271;0.2005071
0.08560275;0.07481478;0.06471173;0.05299011;0.04459133;0.03858646;0.03365048;0.03142055;0.03091251;0.0302184;0.03020163;0.0306229;0.03107845;0.03120294;0.03102744;0.03075158;0.03034882;0.02933282;0.02881811;0.02810005;0.02722356;0.02650387;0.02549732;0.02402441;0.02273699;0.02184919;0.02101429;0.02065485;0.02048603;0.02041822;0.02044845;0.02041514;0.02090363;0.02070236;0.02172863;0.02302887;0.02662411;0.03066079;0.03661327;0.04326916;0.05042812;0.05669548;0.06237418;0.06752544;0.07234479;0.07664835;0.07983543;0.08152254;0.08140215;0.0798852;0.07698618;0.07340001;0.07001591;0.06708885;0.0650885;0.06357638;0.06245046;0.06175259;0.06111015;0.06045935;0.05953839;0.05860548;0.05805537;0.0577984;0.05817617;0.05925254;0.06121936;0.06414272;0.06804273;0.07285404;0.07837512;0.08422737;0.09000471;0.09553619;0.1006984;0.1055968;0.1107296;0.1174865;0.1269337;0.1394652;0.1550377;0.1731598;0.1924792;0.211168;0.2277688;0.2411911;0.2508101;0.2573261;0.2615931;0.2641889;0.2654435;0.2657135;0.2648877;0.2633636;0.261522;0.2590092;0.2562848;0.253673;0.2507592;0.2481734;0.245985;0.2440038;0.2424684;0.2413487;0.2403501;0.2393736;0.23848;0.2371658;0.2353798;0.233273;0.2304589;0.2272521;0.2236306;0.2195562;0.2153171;0.2111349;0.2070782;0.2036768;0.2014255;0.1983724;0.1955083;0.1932532;0.1915133;0.1907084;0.1906488
0.08839503;0.07695973;0.06659235;0.05419521;0.04556982;0.0392746;0.03429504;0.03176468;0.03139795;0.03070061;0.03056613;0.03084944;0.03137298;0.03154329;0.03132671;0.0310301;0.03050553;0.02953684;0.02898681;0.02826596;0.02721474;0.02648912;0.02539184;0.02382993;0.02254135;0.02160341;0.02069791;0.02029458;0.02017938;0.02011943;0.020161;0.02013253;0.0205881;0.02036018;0.02148034;0.02278711;0.02651261;0.03070392;0.03676794;0.04360836;0.0510276;0.05751535;0.06337031;0.06872817;0.07371417;0.07817261;0.08155212;0.08323871;0.08310913;0.08155099;0.07857054;0.07481556;0.07123424;0.06817702;0.06608464;0.06446148;0.06333759;0.06256467;0.06190088;0.06120215;0.06026011;0.05928445;0.05867469;0.05837912;0.05874385;0.05982961;0.06186958;0.06492515;0.0689714;0.07394867;0.07975435;0.0858127;0.09189623;0.09777341;0.1031546;0.1082913;0.1137504;0.1208974;0.1309153;0.1442971;0.1609011;0.1802375;0.200835;0.2208018;0.2384831;0.2527433;0.2629531;0.2698795;0.2743677;0.2770381;0.2784007;0.2787112;0.2777426;0.2761069;0.2741085;0.2714205;0.2685066;0.2656744;0.2626219;0.2598246;0.2574798;0.2553753;0.2537229;0.2525029;0.2514046;0.250387;0.2494019;0.2480018;0.246134;0.2438853;0.240911;0.2374912;0.233637;0.229281;0.224753;0.2203314;0.2160158;0.2124027;0.2099464;0.2067077;0.2036781;0.2012807;0.1994154;0.1984949;0.1983764
0.09467955;0.08302931;0.07217771;0.05938111;0.05076953;0.04436797;0.03905097;0.03668169;0.03613712;0.03535916;0.03537536;0.0357355;0.03628805;0.03643839;0.03611916;0.03589743;0.03540891;0.03430572;0.03369099;0.03285604;0.03184374;0.03095128;0.02975858;0.02813868;0.02670023;0.02570307;0.0247365;0.02425245;0.02403905;0.02393662;0.0239485;0.02389302;0.02439349;0.02416342;0.02526413;0.0267198;0.03065373;0.03513785;0.04153009;0.04873674;0.05653533;0.06346299;0.06971064;0.07542264;0.0806725;0.08543804;0.08897977;0.0907095;0.09062286;0.0889072;0.08572396;0.08163819;0.07783212;0.07457722;0.072289;0.07053807;0.0692763;0.06839403;0.06768294;0.06693846;0.06588522;0.06486336;0.06418166;0.06388779;0.06425481;0.0653617;0.06747978;0.07067945;0.07491443;0.080162;0.08623218;0.09270719;0.09914972;0.1053383;0.1110128;0.1163734;0.1221075;0.1295726;0.1399747;0.1537858;0.1709692;0.1909004;0.2121969;0.2328046;0.2510182;0.2656788;0.2761387;0.2831505;0.2877735;0.2905223;0.2918418;0.2920839;0.2911008;0.2895124;0.2875633;0.2848386;0.2818735;0.2790173;0.2758522;0.2729352;0.2704966;0.2682652;0.2665424;0.2652314;0.2639939;0.2628665;0.2618459;0.2603747;0.2584033;0.2561071;0.2530641;0.2495487;0.2456659;0.2412944;0.2367279;0.2322228;0.2278527;0.2241855;0.221641;0.2183396;0.2153001;0.2129297;0.2111304;0.210326;0.2103096
0.09520138;0.08344836;0.07291832;0.05997109;0.05105565;0.04456147;0.03951107;0.03689725;0.03650916;0.03581514;0.03577279;0.0363282;0.03681713;0.0368458;0.03666439;0.03646537;0.03581742;0.03479271;0.03415995;0.03328327;0.0322022;0.03130569;0.03011435;0.02853886;0.02706788;0.02600863;0.02505425;0.02458624;0.02430103;0.02417254;0.02424509;0.02410962;0.02467923;0.02444434;0.02553987;0.02698463;0.03095778;0.03547634;0.04190278;0.04921873;0.05712989;0.06413032;0.07040859;0.07622112;0.08153856;0.08636562;0.0898573;0.09163797;0.09147236;0.089788;0.08654667;0.08247044;0.07857501;0.07529672;0.07295455;0.07118623;0.06985506;0.06903409;0.06830698;0.06754512;0.06654519;0.06543872;0.06478482;0.06447708;0.06480961;0.06594823;0.0680724;0.07126717;0.07557347;0.08087279;0.08699867;0.09348753;0.1000103;0.106241;0.1119704;0.1174085;0.1231824;0.130718;0.1412005;0.1551102;0.1723344;0.1923534;0.2136097;0.2341532;0.2522214;0.2667999;0.277141;0.2841242;0.2886907;0.2914063;0.2927358;0.2929836;0.2920024;0.2904162;0.2884458;0.2857847;0.282841;0.2800248;0.2768572;0.273977;0.2715592;0.2693626;0.2676415;0.2663666;0.2651472;0.264036;0.2630024;0.2615503;0.2595799;0.2572838;0.2542455;0.2508072;0.2469335;0.2425734;0.2380465;0.2335683;0.2292251;0.225563;0.2230111;0.2197089;0.2166652;0.214264;0.2123815;0.2114557;0.2112996
0.09347188;0.08214209;0.07174624;0.05911659;0.05037675;0.04418341;0.03927214;0.03684228;0.03625043;0.0355463;0.03552169;0.03589202;0.03636819;0.03653691;0.0363676;0.03608771;0.03569195;0.03461324;0.03395864;0.03307247;0.03216118;0.03135382;0.03013417;0.02853295;0.02720817;0.0262802;0.02529936;0.02482693;0.02460702;0.02452052;0.02450762;0.02443288;0.02492017;0.0247117;0.02579391;0.02719026;0.03103094;0.0354718;0.04166746;0.0487233;0.05636913;0.06310873;0.06917024;0.0747386;0.07992336;0.08448847;0.08789169;0.08960773;0.08948605;0.0878812;0.0848012;0.08086146;0.07717878;0.07397424;0.07173558;0.0700805;0.06880459;0.06798568;0.06733501;0.0665762;0.06558107;0.06458817;0.06393693;0.06364743;0.0640199;0.06513036;0.0671715;0.07029107;0.07439435;0.07954995;0.0854466;0.09173173;0.09799629;0.1040056;0.1095297;0.1147566;0.1202941;0.1275449;0.1375698;0.1509415;0.1675284;0.1868272;0.2073973;0.2273036;0.2449182;0.2591171;0.2692333;0.2761103;0.2805461;0.2832196;0.2845836;0.2848409;0.2839332;0.2824;0.2804934;0.2779246;0.2750567;0.2723072;0.2692377;0.2664533;0.2641233;0.2619781;0.2602899;0.2590508;0.2578884;0.2567897;0.2558308;0.2544109;0.2525294;0.2503105;0.2473683;0.2440106;0.240282;0.2360621;0.2316663;0.2273548;0.2231687;0.2196461;0.2172852;0.2141357;0.2112148;0.2090256;0.2073753;0.2067572;0.2069296
0.0956419;0.08441672;0.07376004;0.06128007;0.05253455;0.04622429;0.04125923;0.03852875;0.03824785;0.03765839;0.03757229;0.03802014;0.03862624;0.03878678;0.03855207;0.03820291;0.03768141;0.03673473;0.03613355;0.03521184;0.03421207;0.03339329;0.03228587;0.03062887;0.02916357;0.0281306;0.02715538;0.02674873;0.02656752;0.0264096;0.02638098;0.02633396;0.02683266;0.02660957;0.02761129;0.02911856;0.03298703;0.03744359;0.04388846;0.05100213;0.05878139;0.0656518;0.07180186;0.07745046;0.0826392;0.08734109;0.09077365;0.092531;0.0924046;0.09079314;0.08761709;0.0836495;0.07990338;0.07666825;0.07439649;0.07269502;0.07140021;0.07058582;0.06994385;0.06918228;0.06818363;0.06712329;0.0664928;0.06620314;0.06660334;0.06768331;0.06979923;0.0729244;0.07711373;0.08232337;0.08830797;0.09463893;0.1009811;0.1070515;0.1126401;0.1179167;0.1235352;0.1308745;0.1409988;0.1544877;0.1711618;0.1905502;0.2112218;0.2311571;0.2487408;0.2629144;0.2730544;0.2797992;0.2843153;0.2869782;0.2883064;0.2885462;0.2876464;0.2861569;0.2842644;0.2817156;0.2788631;0.2761041;0.273086;0.270317;0.2679788;0.2658604;0.2641917;0.2629148;0.2617531;0.2607196;0.2597349;0.2583126;0.256434;0.2542129;0.2512664;0.2479115;0.2441773;0.2399566;0.2355572;0.2312348;0.2270144;0.2234909;0.2211375;0.217942;0.2149834;0.2126858;0.2108964;0.2100487;0.2099678
0.09542252;0.08418409;0.07365096;0.06101251;0.05238817;0.04623666;0.04125088;0.03882571;0.03825673;0.03758816;0.03757605;0.03801912;0.03861925;0.03878068;0.03853642;0.03822505;0.03768507;0.03658644;0.0360534;0.03512883;0.03413454;0.03327032;0.0320782;0.03049404;0.02902339;0.02799391;0.02702952;0.02658618;0.02633101;0.02618997;0.02616066;0.02608501;0.02663588;0.02641992;0.02750144;0.02884218;0.03280727;0.03726357;0.04367146;0.05082662;0.05860634;0.06551812;0.07159424;0.07724471;0.08243509;0.08710477;0.0905753;0.09230167;0.09217971;0.09054035;0.08743576;0.08344057;0.07970341;0.07644133;0.07423632;0.07245304;0.07116531;0.07035687;0.06964447;0.06894088;0.06792468;0.06691417;0.06622437;0.06596161;0.066346;0.0674515;0.06957451;0.07268054;0.07691491;0.0820673;0.08803424;0.09438936;0.10071;0.1067779;0.1122895;0.1175648;0.1231245;0.1303598;0.1403558;0.1536603;0.1700559;0.1890606;0.2092986;0.2287802;0.2460147;0.2598183;0.2696263;0.2763148;0.2806582;0.283277;0.2845341;0.284776;0.2839379;0.2824233;0.2805784;0.27811;0.2753381;0.2726445;0.2696827;0.2669464;0.2646792;0.2625637;0.2609521;0.2597373;0.2586007;0.2575407;0.2565742;0.2551777;0.2533077;0.2511778;0.2482732;0.2449984;0.2413355;0.237199;0.2329232;0.2286964;0.224581;0.2211512;0.2188186;0.215702;0.2128268;0.2106033;0.2089024;0.2081599;0.208112
0.08654276;0.07543847;0.06530774;0.05333591;0.04518343;0.03929466;0.03457948;0.0322016;0.03168857;0.031004;0.03094038;0.03129495;0.03170561;0.03177813;0.03151322;0.03118455;0.03067108;0.02965472;0.02905583;0.02824546;0.02723;0.02646852;0.02532197;0.02388525;0.02263883;0.02166829;0.0207917;0.02038981;0.02023628;0.02013317;0.02003526;0.02004517;0.02057366;0.02031729;0.02131111;0.02256433;0.02620306;0.03023684;0.03619372;0.04290325;0.0502131;0.05672588;0.0625422;0.0678068;0.07273979;0.07728367;0.08066045;0.08251727;0.08250444;0.08099768;0.0780753;0.07423712;0.07067446;0.06755432;0.06539313;0.06376354;0.06256955;0.06175264;0.06106202;0.06033582;0.05932873;0.05835334;0.05767364;0.05740996;0.05775279;0.05870793;0.06071636;0.06370011;0.06764895;0.07256036;0.07825576;0.08431528;0.0903917;0.09624199;0.101565;0.1066374;0.1119749;0.118873;0.1284176;0.1412385;0.1572171;0.1759491;0.1960463;0.2155325;0.2329029;0.2469191;0.2569059;0.2637232;0.2681894;0.2707937;0.2721642;0.2724059;0.2715063;0.2699427;0.268046;0.2654902;0.2626618;0.2599305;0.2569664;0.2543311;0.2520988;0.2501414;0.2486322;0.2475155;0.2465175;0.2455912;0.2447338;0.2434269;0.2416588;0.2395449;0.2367265;0.2334838;0.2298576;0.2257159;0.2214182;0.2171936;0.2131184;0.2096963;0.2073769;0.2042983;0.2014832;0.1993041;0.1975651;0.1966967;0.1965249
0.08437309;0.07360742;0.06359282;0.05159414;0.0436593;0.03810674;0.0333834;0.03102487;0.03057021;0.02993566;0.02984627;0.03019295;0.03066305;0.03073381;0.03044332;0.03020735;0.02977406;0.02874839;0.02826132;0.0275153;0.02646389;0.02573197;0.0246339;0.02323352;0.02191006;0.02096885;0.02014083;0.01979005;0.01958344;0.01947325;0.01950984;0.01943626;0.01990802;0.01967097;0.0206816;0.02195298;0.02548596;0.02949234;0.03530639;0.04194897;0.04915678;0.05553206;0.06121112;0.06645626;0.07126545;0.07572123;0.07909078;0.0808777;0.08084241;0.07934094;0.07646723;0.07280289;0.06925965;0.06630094;0.06418256;0.06258859;0.06142701;0.0606922;0.05995548;0.05928645;0.058285;0.05731614;0.05668512;0.05638323;0.0567282;0.05772511;0.05964819;0.06256837;0.06645332;0.07124051;0.07680722;0.08271907;0.08862552;0.09430461;0.0994849;0.1043951;0.109523;0.1162113;0.1254769;0.1378827;0.153416;0.1715123;0.1909919;0.2098966;0.2266961;0.2403004;0.2500269;0.2565895;0.2609359;0.2635253;0.2648383;0.2650828;0.2642403;0.2627212;0.2608534;0.2583753;0.2556519;0.2530078;0.2501019;0.2475106;0.2453722;0.2434553;0.2419856;0.240907;0.2399558;0.2390273;0.2381845;0.2369194;0.2351798;0.2331324;0.2303662;0.2272042;0.2236469;0.2196284;0.2154294;0.2113156;0.2073115;0.2039519;0.2016788;0.1986521;0.1958676;0.1936612;0.1919377;0.1910971;0.1909037
0.0847936;0.07386106;0.06378998;0.05204517;0.04399148;0.03818802;0.03339715;0.03103847;0.03057498;0.02985875;0.02974364;0.03009097;0.03056073;0.03066754;0.030449;0.03019762;0.02973953;0.02866198;0.02813599;0.0272712;0.02624505;0.02551578;0.02443255;0.02299872;0.02160506;0.0207135;0.01982172;0.0194822;0.01935856;0.01919935;0.01919747;0.01910045;0.01962245;0.01935139;0.02036847;0.02165467;0.02527113;0.02927868;0.03513346;0.04177769;0.04906075;0.05547565;0.06115476;0.06643412;0.07138864;0.07577784;0.07917637;0.08096211;0.08092461;0.07947978;0.07658108;0.07281475;0.06930024;0.06628124;0.06416375;0.06256676;0.06135394;0.06059533;0.059959;0.05919287;0.05824092;0.05722607;0.05657774;0.05627688;0.05664504;0.05762261;0.05959131;0.06249021;0.06641837;0.07126478;0.0768704;0.08280388;0.08878491;0.09449963;0.09969804;0.1046623;0.1098475;0.1165753;0.1259459;0.138442;0.1540744;0.1723366;0.1919284;0.2109834;0.2278924;0.2415779;0.2513976;0.2580183;0.2623897;0.2649649;0.2663172;0.2665563;0.2656825;0.2641904;0.2623073;0.2597784;0.2570227;0.2543942;0.2514928;0.2488765;0.2467335;0.2448111;0.2433338;0.2422265;0.2413021;0.2403431;0.2395221;0.2382362;0.2364833;0.2344358;0.2316534;0.2284756;0.224932;0.2208815;0.2166643;0.2125216;0.2084895;0.2051318;0.202853;0.1998434;0.1970567;0.1948725;0.1932135;0.1924312;0.1923036
0.08352998;0.07293741;0.06281471;0.05114296;0.04328025;0.03752177;0.03276454;0.0304114;0.03008632;0.02929572;0.02918818;0.02950097;0.02983793;0.02993986;0.02976063;0.02953671;0.02914608;0.02807493;0.02748539;0.02669088;0.02565332;0.02500762;0.02390903;0.02247821;0.02120582;0.0203253;0.01945758;0.01907555;0.0188778;0.01881341;0.01879527;0.01874137;0.01919913;0.01898349;0.02000383;0.02117272;0.02469218;0.02863269;0.03442082;0.04088347;0.04806272;0.05433975;0.05992004;0.06514335;0.06993947;0.0742053;0.07752156;0.07934492;0.07934314;0.07788341;0.07502753;0.0713791;0.06788261;0.06491275;0.06281143;0.06123012;0.06007979;0.05933253;0.05865584;0.05795292;0.05698986;0.05601009;0.05536991;0.05508183;0.05541454;0.0563971;0.05828355;0.06114413;0.06498937;0.0697132;0.07519083;0.08101407;0.08686676;0.09247143;0.09758573;0.1024479;0.1075192;0.114136;0.12329;0.1355612;0.150907;0.1688709;0.1881842;0.2069078;0.2236604;0.2371203;0.2468013;0.2533599;0.2576723;0.2602203;0.2615207;0.261761;0.2609083;0.2594268;0.2575565;0.2550905;0.252327;0.2496895;0.2468545;0.244251;0.2421145;0.2401987;0.2387154;0.2376464;0.2366937;0.2357571;0.2349128;0.2336451;0.2319102;0.2298427;0.2271013;0.2239164;0.2204164;0.2164136;0.2122363;0.2081438;0.2041456;0.2007839;0.1985182;0.195459;0.19268;0.1904453;0.1886593;0.1876514;0.1873107
0.07824627;0.0679224;0.05867269;0.04755244;0.0399206;0.03466986;0.03020547;0.02802254;0.02760815;0.02682656;0.02681349;0.02723073;0.0276064;0.02767514;0.02748492;0.02729334;0.02690868;0.02609805;0.02557466;0.02481999;0.02402283;0.02331083;0.02232134;0.0210792;0.01993198;0.01912125;0.01837029;0.0180065;0.01787444;0.01781473;0.0178586;0.01775354;0.01821391;0.01805777;0.01897097;0.02014023;0.02355655;0.02720469;0.03267518;0.03878786;0.04539167;0.05128672;0.05650144;0.0613388;0.0657876;0.06983799;0.07295547;0.07452521;0.07457615;0.07319758;0.0706373;0.06727977;0.06403743;0.06130738;0.05940856;0.0579783;0.05691518;0.05623004;0.0556823;0.05499558;0.05414058;0.0532571;0.05268734;0.05246971;0.0527581;0.05369169;0.0554887;0.05816855;0.06174501;0.06615893;0.07125629;0.07664604;0.08207159;0.08726487;0.09197702;0.09652784;0.1012095;0.1073503;0.1158448;0.1272897;0.1416131;0.1584074;0.1765707;0.1943302;0.2101516;0.2230157;0.2322339;0.2385543;0.2426831;0.2451397;0.2463732;0.2466481;0.245822;0.2444314;0.2426576;0.2402644;0.2376665;0.2351234;0.2323757;0.2299242;0.2278999;0.2260813;0.2246781;0.2237041;0.2227554;0.2219257;0.221115;0.2198948;0.2182285;0.2162889;0.2136917;0.2106797;0.2073604;0.2035531;0.1995985;0.1957476;0.1919481;0.1888143;0.1867463;0.1839017;0.1812595;0.1791905;0.1775448;0.176661;0.176424
0.09741983;0.08584943;0.07471903;0.06183254;0.05258314;0.04603744;0.04030742;0.0377512;0.03734276;0.03640812;0.03627454;0.03647092;0.03691945;0.03712836;0.03671844;0.03621846;0.03566063;0.03461263;0.03382016;0.03301289;0.03179438;0.03077767;0.0294982;0.02780852;0.02637815;0.02533076;0.02436499;0.02394472;0.02366677;0.02352248;0.02371983;0.02353387;0.02415111;0.02400833;0.02514614;0.02663411;0.03074485;0.03540663;0.04212281;0.04954079;0.05771323;0.06479076;0.07114172;0.07684144;0.0821254;0.08689298;0.09043531;0.09226555;0.09221534;0.09048347;0.08718038;0.08313336;0.0790654;0.0757591;0.07332253;0.07153741;0.07018585;0.06930566;0.06853729;0.06777936;0.06670167;0.06566786;0.06500425;0.06470202;0.06510165;0.06638319;0.0686141;0.07195223;0.07635517;0.08178452;0.0880041;0.09464829;0.1011843;0.1075089;0.113309;0.1188791;0.1249202;0.1328567;0.1438973;0.1584823;0.1764759;0.1971274;0.2189374;0.239704;0.2579899;0.2725887;0.2830881;0.290001;0.2946015;0.2972814;0.2985845;0.2987612;0.2977001;0.2959382;0.2937887;0.2909237;0.28772;0.2847399;0.2814191;0.2784463;0.2758923;0.2736234;0.2717963;0.2704608;0.2691937;0.2680716;0.267016;0.2655321;0.263564;0.2611501;0.2580475;0.2544601;0.250509;0.2459901;0.2413701;0.236866;0.2324276;0.2287486;0.2262076;0.2229204;0.2198517;0.2173886;0.2155068;0.2145846;0.214476
0.09446044;0.08296344;0.07201429;0.05931408;0.05026287;0.04372032;0.03816135;0.03579578;0.03519116;0.03412698;0.03407257;0.0342987;0.03463159;0.03479297;0.03451123;0.03405762;0.03349858;0.03248805;0.03174977;0.03098201;0.02988057;0.02885604;0.0275931;0.02599749;0.02464136;0.02355708;0.02267317;0.02230474;0.02203699;0.02189089;0.02203524;0.02194273;0.02257071;0.02239156;0.02352502;0.02502344;0.02900839;0.03353588;0.04004223;0.04728439;0.05524188;0.06226676;0.06837867;0.07403442;0.07916625;0.08397645;0.0874226;0.08928496;0.08921223;0.08745569;0.08425034;0.0801798;0.07623694;0.07296947;0.07059694;0.06883626;0.06750698;0.06662536;0.0659272;0.06519756;0.06414588;0.06313475;0.06247033;0.06219187;0.06258393;0.06383155;0.06602544;0.06929584;0.07359084;0.07898394;0.08507348;0.09160784;0.09804708;0.1042714;0.1100251;0.1155654;0.1215015;0.1293838;0.1402718;0.1547052;0.1724626;0.1929343;0.214502;0.2351013;0.2533246;0.267815;0.278234;0.2851937;0.2897523;0.2924951;0.2938073;0.2940183;0.2929973;0.291282;0.2892014;0.2864392;0.2833396;0.2803605;0.2771021;0.2741772;0.2716798;0.2694634;0.2676483;0.266304;0.2651014;0.2639781;0.26293;0.2614712;0.2595192;0.2571438;0.2540776;0.250503;0.246563;0.2421081;0.2375167;0.2330167;0.228602;0.2249683;0.2224761;0.2191843;0.2161405;0.2136898;0.2117921;0.2109046;0.2108292
0.09468839;0.08320308;0.07243337;0.05971245;0.05090256;0.04421949;0.03874893;0.03622991;0.03578351;0.03502947;0.03490045;0.03495134;0.03530005;0.03554585;0.03517981;0.03469099;0.03419857;0.03321667;0.03242366;0.03154351;0.0303957;0.02945842;0.0282754;0.02661999;0.02523645;0.02422529;0.02334866;0.02299525;0.0225978;0.02251233;0.02263608;0.02251225;0.02304349;0.022939;0.02414436;0.02557212;0.02955094;0.03403179;0.04049465;0.04765482;0.05565063;0.06252043;0.06862941;0.07416784;0.07933773;0.08399723;0.0874818;0.08927106;0.08919793;0.08747311;0.08435851;0.08029588;0.07640316;0.07322374;0.07081316;0.06910512;0.06776845;0.06693128;0.06625098;0.06548712;0.06440566;0.06343511;0.06276052;0.06247689;0.06290483;0.06410501;0.06629039;0.06953908;0.07378839;0.07909977;0.08509065;0.09152301;0.09786598;0.1040335;0.1096894;0.1150971;0.1209534;0.1286735;0.1393634;0.153564;0.1711101;0.191227;0.2125742;0.2329436;0.2509558;0.265345;0.2756843;0.2825885;0.287148;0.289833;0.291141;0.2913547;0.2903452;0.2885657;0.2864873;0.2836609;0.2805881;0.2775782;0.2743225;0.2713592;0.2688912;0.2666531;0.2648677;0.2635185;0.262263;0.2611897;0.2601;0.2586852;0.2567295;0.2543404;0.2512639;0.2477229;0.2438308;0.2393726;0.234844;0.2303892;0.2260061;0.2223832;0.2198994;0.21666;0.2136116;0.2111269;0.2091485;0.2081242;0.2078939
0.09398732;0.08262961;0.07169611;0.05914985;0.05023595;0.04382545;0.03830851;0.03574381;0.03540858;0.03448966;0.03430982;0.03454944;0.03498652;0.03512881;0.03484113;0.03446085;0.0338687;0.0329478;0.03209928;0.03127954;0.03027647;0.02936002;0.02812241;0.02649728;0.02516135;0.02413373;0.02321286;0.0229063;0.0226086;0.02244266;0.02257308;0.02249154;0.02302691;0.02291895;0.02412258;0.02555306;0.02948757;0.03397036;0.0403952;0.04755986;0.05540289;0.06223496;0.06827299;0.07370634;0.07880358;0.08343837;0.08685897;0.08858829;0.08852926;0.0868521;0.08373159;0.07974085;0.07587459;0.07264847;0.07037203;0.06864661;0.06734865;0.06649686;0.06580207;0.06505174;0.06402991;0.0630895;0.06242529;0.06217008;0.06256265;0.06381033;0.06592033;0.06913174;0.07334778;0.07852641;0.08448121;0.09080181;0.09708444;0.1031119;0.1086941;0.1140632;0.1198599;0.1275089;0.1381177;0.1521976;0.169573;0.1896405;0.2108184;0.2311757;0.2490629;0.2634527;0.2737911;0.2807268;0.2852833;0.288014;0.289307;0.2895288;0.2885191;0.2868236;0.2847438;0.2819566;0.2788618;0.2759242;0.2726299;0.2697197;0.2672416;0.2650127;0.2632194;0.2618798;0.2606435;0.2595285;0.2584889;0.2570122;0.2551129;0.2527139;0.2496904;0.2461105;0.2422457;0.2378152;0.2332968;0.2288533;0.2245018;0.2208979;0.2184277;0.2151819;0.2121805;0.2097429;0.2078556;0.2068985;0.206783
0.0950342;0.08366528;0.07311729;0.06076279;0.0517462;0.04524991;0.03961741;0.0373992;0.03685268;0.03591875;0.03586929;0.036015;0.03631511;0.03647033;0.03617292;0.035799;0.03527758;0.03431077;0.03346423;0.03263548;0.03169423;0.03071423;0.02944273;0.02786179;0.02658774;0.0255489;0.02458658;0.02424923;0.0238981;0.02380815;0.02392052;0.0237676;0.02437999;0.02427108;0.02539979;0.02683417;0.03081661;0.03527997;0.04161242;0.04880753;0.05660259;0.06342237;0.06944799;0.0748676;0.07991501;0.08449526;0.0878932;0.08967043;0.08964685;0.08797937;0.08485342;0.080854;0.07704002;0.07386523;0.07154953;0.06981693;0.06848697;0.06767984;0.06697943;0.06624289;0.06516351;0.06423952;0.06358964;0.06330328;0.06373413;0.06493714;0.06706822;0.07026142;0.07438535;0.07963493;0.08550686;0.0918241;0.09802688;0.1040542;0.1095736;0.1149397;0.120679;0.1282568;0.1387596;0.152693;0.169872;0.1896636;0.2105926;0.2305726;0.2482322;0.2623696;0.2725133;0.2793147;0.2838153;0.2864977;0.287764;0.2879543;0.2870025;0.2852996;0.2833186;0.2805421;0.277521;0.274613;0.2714804;0.2685513;0.2660978;0.2639239;0.2621444;0.2607874;0.2595883;0.2584966;0.2574052;0.2560284;0.2540887;0.2517399;0.2487672;0.245293;0.2414428;0.2371208;0.2326782;0.2283337;0.2240523;0.2204966;0.2181071;0.2149196;0.2119818;0.2095943;0.2077145;0.206729;0.2065616
0.09660875;0.08501875;0.07392518;0.06097795;0.0519043;0.04553917;0.04028159;0.03791143;0.03768316;0.03698532;0.03694124;0.03728246;0.03791751;0.03817163;0.03788367;0.03756759;0.0370289;0.0360039;0.03526237;0.03443423;0.03325913;0.03227124;0.03097705;0.02933197;0.0278247;0.02663409;0.02575226;0.02535287;0.02502729;0.02489627;0.02501889;0.02494983;0.02549405;0.02529735;0.02642004;0.02799234;0.03208366;0.03675105;0.0435441;0.05107474;0.05928746;0.06656173;0.07304553;0.07892388;0.0843627;0.0892135;0.09288976;0.09467672;0.09444692;0.09265141;0.08936263;0.08531656;0.0814032;0.078076;0.07571598;0.07403944;0.07279113;0.07189476;0.07123321;0.07045481;0.0694269;0.06843599;0.06776032;0.06741711;0.06788819;0.0691472;0.07139149;0.07470195;0.07906892;0.08451486;0.09075664;0.09737697;0.103977;0.1103341;0.1161461;0.1217302;0.1276592;0.1353981;0.1461687;0.1604966;0.1782012;0.1985401;0.220175;0.2409026;0.2593033;0.2741379;0.2847621;0.2920133;0.2967985;0.299585;0.3010634;0.3013837;0.3004777;0.2988508;0.2968844;0.2941951;0.2911703;0.288232;0.285046;0.2821485;0.2797288;0.2775234;0.2757746;0.2744727;0.2732881;0.2721763;0.2711548;0.2697056;0.26775;0.2654279;0.2623741;0.2588418;0.2549296;0.2504057;0.2458043;0.2412501;0.236814;0.2330312;0.2303821;0.2270337;0.2238915;0.2213277;0.2192325;0.2179108;0.2173558
0.09035688;0.07937948;0.06890946;0.05644481;0.04768243;0.04177145;0.03687541;0.03434264;0.03419527;0.03355549;0.0334121;0.03370971;0.03424029;0.03442054;0.03421639;0.03396011;0.03351326;0.03263499;0.03193748;0.03110238;0.03013457;0.02913969;0.02797273;0.02640197;0.02498069;0.02399443;0.02317402;0.02279351;0.02254806;0.02240398;0.02249772;0.02250094;0.02301702;0.02288441;0.02392542;0.02537361;0.02924698;0.0335996;0.04000814;0.0469596;0.05466869;0.0614509;0.06756926;0.07306882;0.07817218;0.08268279;0.08609795;0.08778684;0.08759125;0.08587161;0.08280306;0.07900229;0.07530005;0.07223528;0.07004273;0.06844522;0.06721997;0.06647906;0.06578264;0.06511714;0.06412033;0.06317965;0.06255296;0.06225966;0.06271852;0.06387001;0.06596261;0.06903924;0.07311754;0.07820145;0.08401363;0.09024632;0.09638042;0.1023017;0.1077574;0.1129376;0.1184839;0.1257434;0.1358066;0.1491741;0.1657501;0.1848362;0.2052082;0.2247915;0.2421606;0.2562045;0.2663598;0.2732904;0.2778411;0.2805569;0.2819892;0.2823454;0.2815257;0.2799722;0.2781134;0.2755855;0.2727068;0.2699465;0.2668614;0.264112;0.2618255;0.2596702;0.2579868;0.2567311;0.2555618;0.2544884;0.2535032;0.2520697;0.250212;0.247987;0.2450606;0.2417524;0.2380137;0.2337753;0.2294023;0.2250944;0.2209158;0.2173437;0.2148758;0.2117143;0.2088123;0.2064669;0.2045908;0.2035884;0.2033082
0.09141234;0.08039083;0.06985327;0.05729742;0.04889716;0.04250043;0.03764078;0.03535736;0.03520496;0.03445189;0.03431875;0.03456213;0.03503932;0.03532113;0.03516998;0.03483209;0.0344241;0.03346771;0.03268138;0.03184029;0.03097305;0.03006307;0.02875372;0.02723715;0.02584959;0.02485603;0.02399312;0.02362696;0.02331174;0.02325228;0.02332076;0.02334029;0.02386564;0.02370852;0.02472825;0.02615293;0.03012824;0.03446629;0.0408265;0.04788652;0.05555193;0.06232463;0.06843307;0.07396103;0.07897948;0.08354697;0.0869509;0.08861852;0.08843362;0.0867561;0.08369194;0.0799225;0.07622091;0.07318264;0.07104497;0.06939175;0.06819241;0.06737332;0.06677845;0.06608342;0.06510649;0.06413955;0.06353097;0.06329929;0.06369291;0.06486618;0.06696075;0.07004398;0.0741495;0.07922403;0.08503258;0.09122264;0.0973746;0.1032565;0.1087464;0.1139034;0.1194119;0.1266599;0.1367002;0.1500519;0.1666552;0.1857038;0.2060817;0.2257046;0.2430887;0.2570961;0.2672513;0.2741332;0.2787206;0.2814256;0.2828643;0.2832068;0.2823687;0.2808383;0.278959;0.2764539;0.2735938;0.2707991;0.2677533;0.2649999;0.2626652;0.2605331;0.2588493;0.2575686;0.2564366;0.2553515;0.2543761;0.2529624;0.2510924;0.248859;0.2459671;0.2426296;0.2389118;0.2346738;0.2303041;0.2260143;0.2218457;0.2182956;0.2158331;0.2126772;0.209771;0.2074172;0.2055495;0.2045414;0.2042542
0.08990774;0.07912131;0.06870736;0.05612754;0.04753058;0.04139639;0.03657636;0.03409839;0.03388699;0.03330669;0.03314439;0.03340752;0.03390773;0.03405911;0.03384189;0.03351336;0.0330264;0.0321502;0.03143946;0.0306796;0.02976961;0.02888121;0.02765126;0.02611776;0.02475832;0.02377594;0.02298486;0.02263884;0.0223705;0.02227279;0.02237375;0.0223863;0.02294016;0.02277325;0.02381646;0.02522424;0.0291054;0.03337905;0.03956058;0.04655246;0.05419314;0.06086712;0.06691449;0.07242162;0.07742722;0.08190826;0.08530388;0.08697551;0.08679821;0.08507095;0.08205268;0.07834432;0.07469404;0.07165151;0.06953356;0.06792733;0.06674217;0.06593923;0.06530719;0.0646078;0.06367361;0.06272234;0.06208353;0.06184853;0.06227452;0.0634357;0.06553315;0.06859685;0.07263874;0.07768662;0.08346095;0.0896732;0.09581023;0.1017146;0.107115;0.1122999;0.1178255;0.1250222;0.1350903;0.148439;0.1649905;0.1840314;0.2043326;0.2238296;0.2411333;0.2550472;0.2650815;0.2719254;0.2764024;0.2791113;0.280495;0.2808171;0.2799874;0.2784722;0.2766062;0.2740902;0.2712079;0.2684557;0.2654213;0.2626601;0.2603824;0.2582514;0.2565746;0.255337;0.2541904;0.2531314;0.2521423;0.2507445;0.2488663;0.2466276;0.2437181;0.2404148;0.2366897;0.2324395;0.2280852;0.2237755;0.2196097;0.2160517;0.2135516;0.2103852;0.2074246;0.2049603;0.2029409;0.2017262;0.2012216
0.09615581;0.08454177;0.07369784;0.06059691;0.05153484;0.04520587;0.04005126;0.03769537;0.03762445;0.03699079;0.03693743;0.03733638;0.03790168;0.03809899;0.03791717;0.03763701;0.03714579;0.03623314;0.03541642;0.03453007;0.03355414;0.03258378;0.03128014;0.02961743;0.0281234;0.02704038;0.02626267;0.02588788;0.0254689;0.02536138;0.0254757;0.0254759;0.02604959;0.02587126;0.02697067;0.02844747;0.0326051;0.03714606;0.04385966;0.05135312;0.05952482;0.06671894;0.07319822;0.07907698;0.08454715;0.08940148;0.0930714;0.09481653;0.09464273;0.09281485;0.08958464;0.08552036;0.08166347;0.07838186;0.07607237;0.07437946;0.0731217;0.07229149;0.07161858;0.07087702;0.06981161;0.06883076;0.068147;0.06787805;0.06833906;0.06958727;0.07180906;0.07515149;0.07951606;0.0849017;0.09114492;0.09777038;0.1042868;0.1105796;0.1163908;0.1218712;0.1277424;0.1353799;0.145991;0.1600816;0.1774314;0.1972789;0.2182941;0.2384639;0.2562136;0.2704923;0.2807667;0.2877211;0.2923572;0.295067;0.2965262;0.2968567;0.2960104;0.294483;0.2926182;0.2900445;0.2871962;0.2843939;0.2813176;0.2785754;0.2762868;0.2741562;0.272483;0.2712636;0.2701242;0.2690411;0.2681046;0.2666787;0.2647963;0.2625317;0.2595772;0.2562035;0.2523984;0.2480505;0.2435841;0.2391583;0.2348606;0.2311914;0.2285547;0.2253011;0.2222534;0.2197666;0.2177681;0.2166042;0.2161757
0.08827527;0.07707305;0.0664141;0.05408305;0.04575831;0.03959661;0.03443535;0.03245717;0.03208886;0.03124425;0.03100163;0.03111421;0.03141568;0.03168608;0.03159484;0.03134931;0.03103021;0.03017504;0.02960036;0.02885685;0.02794324;0.0271141;0.02597934;0.02453088;0.02318654;0.02219675;0.0213057;0.02104466;0.02086938;0.02069902;0.02081504;0.02087628;0.02139875;0.02128872;0.0223159;0.02373886;0.02759615;0.03178123;0.03795942;0.04472873;0.05211272;0.05876061;0.06477055;0.07026509;0.07527041;0.07973701;0.08295392;0.08448668;0.08421063;0.08241135;0.07932048;0.0754175;0.07180721;0.06881389;0.06662905;0.06498586;0.06383676;0.06305656;0.06245424;0.06180702;0.06090817;0.05996545;0.05931359;0.05906779;0.05949599;0.06062811;0.06263611;0.06569208;0.06970502;0.07470444;0.08042614;0.08658236;0.09274435;0.09864577;0.1041054;0.1093315;0.1148709;0.1221263;0.1322894;0.1457368;0.162389;0.1816396;0.2021616;0.2219064;0.2394978;0.2536699;0.2640569;0.2710999;0.2758857;0.278785;0.2803425;0.2807546;0.280062;0.2786646;0.276973;0.2744866;0.271666;0.2689254;0.2658449;0.26298;0.2605856;0.2583475;0.2565664;0.2551165;0.253852;0.2526783;0.2516676;0.2502232;0.248299;0.2459608;0.242953;0.2394638;0.2356581;0.2313037;0.2268044;0.2224399;0.2181774;0.2146075;0.2121165;0.208905;0.2059547;0.2036504;0.2018587;0.2009862;0.2008643
0.08796337;0.07666063;0.06652172;0.05406941;0.04572502;0.03965465;0.03466036;0.03258151;0.03219462;0.03150401;0.03136687;0.03152386;0.03180579;0.03205562;0.0319423;0.0317292;0.03146649;0.03054139;0.02995136;0.02927467;0.02824424;0.02749112;0.0263673;0.02487051;0.0235482;0.0225476;0.02174322;0.02136587;0.02116416;0.02105714;0.02112168;0.02117736;0.02172247;0.02156405;0.02254751;0.02404679;0.02789626;0.0321542;0.0382498;0.04512843;0.05254962;0.05919258;0.06527478;0.07068957;0.07572605;0.08014911;0.08336046;0.08488341;0.08453851;0.0828144;0.07977474;0.07592687;0.07226975;0.06929153;0.06709003;0.0654634;0.06430163;0.06353438;0.06294505;0.06228363;0.06137283;0.06046439;0.05981933;0.05958363;0.06000033;0.06110216;0.06318127;0.06622875;0.07019378;0.07518819;0.08090707;0.08703931;0.09318309;0.09904785;0.1044284;0.109598;0.1151371;0.1222793;0.1323054;0.1455521;0.1619683;0.1808841;0.2010047;0.2203633;0.2376693;0.2515386;0.2617123;0.2686747;0.2733715;0.2762395;0.2778077;0.2782016;0.277544;0.2762051;0.2745481;0.2721538;0.2694078;0.2667257;0.2636962;0.2609047;0.2585141;0.2563601;0.2545661;0.2532065;0.2519211;0.2507685;0.2497251;0.2482967;0.2464293;0.2441471;0.241196;0.2377964;0.2340575;0.2297923;0.2254219;0.221165;0.2170189;0.2135196;0.2110976;0.2079289;0.2050302;0.2027548;0.2009286;0.1999864;0.1997588
0.08844018;0.07708182;0.06672276;0.0545298;0.0459068;0.03989973;0.03506659;0.03269934;0.03245166;0.03170171;0.03148196;0.03157161;0.03185144;0.03208053;0.03198536;0.03177164;0.03140103;0.03050973;0.02998307;0.02919393;0.02823861;0.02745594;0.02630266;0.02483786;0.02351999;0.02261767;0.02168182;0.02134577;0.02115983;0.02108061;0.021102;0.02115843;0.02170286;0.02150647;0.02257369;0.02402367;0.02775292;0.03197705;0.03803727;0.0447689;0.05207944;0.05857565;0.06458557;0.07001247;0.07491347;0.07927279;0.08253402;0.08400619;0.08371053;0.08198114;0.07893814;0.07510944;0.07151185;0.06852766;0.0663797;0.06479823;0.0636277;0.06280294;0.06225673;0.0615904;0.06065317;0.05980777;0.05915927;0.05889584;0.05930698;0.06042213;0.06245407;0.06545005;0.06936864;0.07433344;0.08001792;0.0860791;0.09216464;0.09800828;0.1033555;0.108508;0.1139702;0.1211405;0.1311472;0.1443814;0.1608051;0.1797506;0.1999453;0.2193758;0.2366907;0.2505962;0.2608386;0.2678018;0.2724607;0.275317;0.2768634;0.2772891;0.2765856;0.2752477;0.2735518;0.2711196;0.268375;0.2656547;0.2626314;0.2598446;0.2574666;0.2552637;0.2535025;0.2521104;0.2508602;0.2497183;0.2486557;0.2472583;0.2453689;0.243071;0.2401342;0.2367033;0.2329507;0.2286739;0.2242739;0.2199799;0.215828;0.212295;0.2098696;0.2067073;0.20383;0.201579;0.1998559;0.1990875;0.1989983
0.08681503;0.07583088;0.06573714;0.05361679;0.04531176;0.03937289;0.03439699;0.03246575;0.03201108;0.03120287;0.03100027;0.03111628;0.03143862;0.03163357;0.03156111;0.03133091;0.03096019;0.03021518;0.02971543;0.02899949;0.02801537;0.02723288;0.02619947;0.02472842;0.02339858;0.02246523;0.02160538;0.02131612;0.02111266;0.02101549;0.02111482;0.02113627;0.02171883;0.02152343;0.02254394;0.02391429;0.02773168;0.03183628;0.03782367;0.04444373;0.05164167;0.05818135;0.06405265;0.06933384;0.07424396;0.07851205;0.08160387;0.08313112;0.0827973;0.08108535;0.07812969;0.07436529;0.07084955;0.06791842;0.06587393;0.06428389;0.06315386;0.06236816;0.0618091;0.06118125;0.06027815;0.05939875;0.05875889;0.05855167;0.05894964;0.06005173;0.06204605;0.06498975;0.06887268;0.07372405;0.07931391;0.08524014;0.09121343;0.09690611;0.1022013;0.1072457;0.1126111;0.1196168;0.1293784;0.1423647;0.1583746;0.1769496;0.1967033;0.2157356;0.2327354;0.246434;0.2564624;0.2633608;0.2680199;0.2708622;0.2723658;0.2727866;0.2721813;0.2708381;0.2692227;0.2668614;0.2641371;0.2614917;0.2585022;0.255739;0.253397;0.251245;0.249497;0.2481062;0.2468505;0.2456993;0.244706;0.2432953;0.2414089;0.2391928;0.2362568;0.2328928;0.2292455;0.2250077;0.2207029;0.2165133;0.2124018;0.2089463;0.2065861;0.2034804;0.2006378;0.1983728;0.1965819;0.1956428;0.1954038
0.08612148;0.07542354;0.06515633;0.05332521;0.04517275;0.03936975;0.03451943;0.03259766;0.03212627;0.03130938;0.03127397;0.03159858;0.03179369;0.03195239;0.03193427;0.0317742;0.03142085;0.03061354;0.03017616;0.02953997;0.02866263;0.02787573;0.02676052;0.0252897;0.02402066;0.02315401;0.02227417;0.02200969;0.0218327;0.0217437;0.02182739;0.02189849;0.02241546;0.02220088;0.02329068;0.02467361;0.02842824;0.03256426;0.03854225;0.04512079;0.05223757;0.0586564;0.06451807;0.06983364;0.07466578;0.07889236;0.08193831;0.08345602;0.08314384;0.08148373;0.07861184;0.07485991;0.07135656;0.06855357;0.06640648;0.06490728;0.06381099;0.06305629;0.06252851;0.06190356;0.06102687;0.06017182;0.05957865;0.05932588;0.05976925;0.06087488;0.06285656;0.06580696;0.06968094;0.07448699;0.07999777;0.08588558;0.09181684;0.09746777;0.1026834;0.1076856;0.112975;0.1198477;0.1294779;0.1422449;0.1579646;0.1761254;0.1954603;0.2140698;0.230632;0.2440088;0.2538489;0.260511;0.2650675;0.2678843;0.2693673;0.2697772;0.2691744;0.2678998;0.2663502;0.2640699;0.2614451;0.2588315;0.2559594;0.2532793;0.250981;0.248922;0.2472269;0.2458699;0.2446647;0.243541;0.2425704;0.2411917;0.2393784;0.2371882;0.2343171;0.2310572;0.2274572;0.2233729;0.2191632;0.2150428;0.2110402;0.2076996;0.2054172;0.202372;0.1996051;0.1974295;0.1957035;0.194866;0.1947397
0.0896595;0.0786147;0.06805728;0.05609403;0.04756961;0.04127603;0.0357584;0.03351123;0.03295265;0.03203238;0.03183322;0.03182619;0.03212764;0.03233289;0.03201097;0.03156713;0.03093207;0.02991725;0.0291772;0.02838398;0.02737172;0.02643115;0.02528204;0.02368356;0.0224169;0.02151823;0.02069197;0.02034614;0.02004184;0.01987473;0.0199692;0.01985303;0.02040969;0.02010147;0.02115396;0.02242698;0.02609114;0.03011303;0.03609097;0.0428304;0.05022266;0.05672698;0.06245113;0.06765706;0.07250543;0.07707329;0.08053132;0.08241274;0.08243244;0.08092044;0.07792572;0.07409187;0.07031024;0.0672822;0.06500844;0.06339519;0.06216406;0.06135891;0.06065049;0.05985885;0.05882205;0.05786821;0.05718226;0.05681306;0.05711523;0.05824568;0.06020003;0.06323746;0.06722296;0.07219967;0.07790397;0.08398478;0.09001055;0.09587181;0.1012335;0.1063488;0.1118053;0.1189775;0.1289404;0.1422142;0.1587817;0.1780938;0.1987003;0.2186002;0.2362115;0.2503316;0.2604752;0.2672259;0.2716435;0.2742192;0.275477;0.2756825;0.2746262;0.2729129;0.2708152;0.2680337;0.2649928;0.2620786;0.2590051;0.2562304;0.2539534;0.2519379;0.2503451;0.2491935;0.2481616;0.2472304;0.2463064;0.2450194;0.2431947;0.2409813;0.2380144;0.2345987;0.2307548;0.2263733;0.2219044;0.2175039;0.2131656;0.2095744;0.2071246;0.2038847;0.2008727;0.1984034;0.1964173;0.1953267;0.1950538
0.09088021;0.07996897;0.06947254;0.05740033;0.04901088;0.04287931;0.03761142;0.03507361;0.0344962;0.03347498;0.03339013;0.0334283;0.03371707;0.03386388;0.03348225;0.03313012;0.03253427;0.03159704;0.03081313;0.02993912;0.02900872;0.02806864;0.02694538;0.02540954;0.02409849;0.02313763;0.02235863;0.02196669;0.02179443;0.02163237;0.02170741;0.02156542;0.02203768;0.021877;0.02280532;0.02415128;0.02768448;0.03168716;0.03760744;0.04429751;0.05163991;0.05801743;0.06365167;0.06876541;0.07363533;0.07811606;0.08155446;0.08341018;0.0834391;0.08190241;0.07893439;0.07512677;0.07143359;0.06833968;0.06614307;0.06449794;0.06328842;0.06247699;0.06173941;0.06101347;0.06001204;0.05900303;0.05830916;0.05799666;0.05831411;0.05937808;0.06131088;0.06429131;0.06820536;0.07313483;0.07875839;0.08479729;0.09074425;0.0965665;0.1018864;0.1069991;0.1123985;0.119537;0.1294117;0.1426584;0.159219;0.1784802;0.1990996;0.2189395;0.2365566;0.2507036;0.2608235;0.2675484;0.2719425;0.274531;0.2757466;0.2759666;0.274902;0.2731408;0.2710389;0.2682525;0.2652071;0.2623072;0.2592094;0.2564316;0.2541484;0.2520942;0.2504834;0.2493332;0.248329;0.2473635;0.2464557;0.2451669;0.2433529;0.2410731;0.2381062;0.2346572;0.2308024;0.2264482;0.2219622;0.2175647;0.2132365;0.2096296;0.2071651;0.2039205;0.2009233;0.1984265;0.1964867;0.1954082;0.1951647
0.09454287;0.08370819;0.07342652;0.06121878;0.05280207;0.04661485;0.04117024;0.03880011;0.03820419;0.03722003;0.0370597;0.0370131;0.03724942;0.03742754;0.03695894;0.03644852;0.03596624;0.03500653;0.03419259;0.03332403;0.03235801;0.03141287;0.03027144;0.02876728;0.02738017;0.02644646;0.02566338;0.02531841;0.02503577;0.02496719;0.02501059;0.02484379;0.02528255;0.02511202;0.02604804;0.02736561;0.03089913;0.03497428;0.04081312;0.04743953;0.05475155;0.06109527;0.06672895;0.07191354;0.07674459;0.08124604;0.08470401;0.08655918;0.08654627;0.08505183;0.08204822;0.07825987;0.07449473;0.07144351;0.06920233;0.06757842;0.06633596;0.06551505;0.06482284;0.06407782;0.0629902;0.06201528;0.06130812;0.06100257;0.06131547;0.06238019;0.06431744;0.06727508;0.07123158;0.0761914;0.0818219;0.08788732;0.09390625;0.0997268;0.1051088;0.1102857;0.1156872;0.1228923;0.132907;0.1462902;0.1630265;0.1825129;0.203334;0.2233947;0.2412069;0.2554556;0.2656547;0.2724679;0.2768786;0.2794925;0.2807353;0.2809361;0.2798917;0.2781343;0.2759938;0.2731975;0.2701357;0.2672409;0.2641084;0.2613267;0.2590161;0.2569706;0.2553834;0.2542318;0.2531908;0.252264;0.2513406;0.2500485;0.2482098;0.2459323;0.2429624;0.2394845;0.2356225;0.2312068;0.2266893;0.2222514;0.2178461;0.2142319;0.2117634;0.2085031;0.2054648;0.2029564;0.200976;0.1998978;0.1996248
0.08979975;0.07889861;0.06842443;0.05641744;0.04785106;0.04165044;0.03635601;0.03413982;0.03345141;0.03230017;0.03217584;0.03228267;0.03260487;0.03279298;0.03235274;0.03186579;0.03138251;0.03037694;0.02961322;0.0288233;0.02789589;0.02702681;0.02588729;0.02437268;0.02304945;0.02207281;0.0212676;0.02097247;0.0206852;0.02060419;0.02067505;0.02055888;0.02098828;0.02081869;0.02185054;0.02310205;0.02670324;0.03064105;0.03665248;0.04335252;0.05066476;0.05704945;0.06276546;0.06800698;0.07281373;0.07737844;0.0808281;0.08269884;0.08274771;0.08122579;0.07825392;0.07443324;0.07064492;0.06760126;0.06537497;0.06374833;0.06255901;0.06174184;0.06102278;0.06026846;0.05924134;0.05825211;0.05757986;0.05724089;0.05757537;0.05867461;0.06064503;0.06365336;0.06767583;0.07262938;0.07829415;0.08441597;0.09045827;0.09629764;0.1016963;0.1068451;0.1123218;0.1194774;0.1294914;0.1428394;0.1594492;0.1787395;0.1993459;0.2191014;0.2366301;0.2507061;0.2607571;0.2674355;0.2718042;0.274363;0.2756559;0.2758433;0.2748926;0.2731246;0.2711049;0.2683571;0.2653868;0.2625617;0.2594987;0.2568042;0.2545191;0.2525626;0.2509765;0.2498545;0.2488614;0.2479555;0.2470573;0.2457602;0.2439921;0.2417685;0.2388395;0.235412;0.2316093;0.2272745;0.222807;0.2184292;0.2141158;0.210556;0.2081504;0.2049448;0.2019396;0.1994935;0.1975487;0.1965995;0.1964639
0.08961153;0.07855844;0.06810877;0.05626228;0.0477166;0.04152182;0.03625193;0.0338853;0.0333731;0.03232084;0.03217584;0.03228269;0.03255318;0.032699;0.03230375;0.03186813;0.03138251;0.03037328;0.02963727;0.02888623;0.02787008;0.02695356;0.02582006;0.02432917;0.02303708;0.02201003;0.02121149;0.0209185;0.02063348;0.02055422;0.02062008;0.02047631;0.02098096;0.0207342;0.02180807;0.02301772;0.02666687;0.03068071;0.03657496;0.04327534;0.05058921;0.05693884;0.06258272;0.06774916;0.07263108;0.07713459;0.08047466;0.08242623;0.08238865;0.08092593;0.07793863;0.07415422;0.07043605;0.06739973;0.06523624;0.06361361;0.06240251;0.06164024;0.06087442;0.06019737;0.05912504;0.05818403;0.05749122;0.05717632;0.05751229;0.05859198;0.06056343;0.06351186;0.06749772;0.07241439;0.07804143;0.08406777;0.09005268;0.09583422;0.1011391;0.1062517;0.1116131;0.1187436;0.1285669;0.141769;0.1582214;0.177346;0.1977515;0.2173855;0.2347921;0.2487775;0.258802;0.2654235;0.2697926;0.2723485;0.2735675;0.2737484;0.272736;0.2710023;0.2689713;0.2661917;0.2632315;0.2603695;0.2573166;0.2545946;0.2523424;0.2503367;0.2487703;0.247642;0.2466325;0.2457224;0.2448293;0.2435294;0.2417379;0.2394985;0.2366003;0.2331735;0.2293598;0.2250745;0.2206139;0.2162636;0.2119729;0.2084435;0.2060298;0.202811;0.1998423;0.1973863;0.1954513;0.1944401;0.1942571
0.09432683;0.08255429;0.07188255;0.05947426;0.05075682;0.04435701;0.0391746;0.03679429;0.03614394;0.03528827;0.03525765;0.03544195;0.03579871;0.03601746;0.03586219;0.03552284;0.03511784;0.0342284;0.03353662;0.03267467;0.03171307;0.03087172;0.02966408;0.02807339;0.02662116;0.02566758;0.02471047;0.0243786;0.0242137;0.0240266;0.02401653;0.02405492;0.02456543;0.02438106;0.02546378;0.02691419;0.03081913;0.03516188;0.04145233;0.0484517;0.05601185;0.06284042;0.06898433;0.07457335;0.07969922;0.08426081;0.08754661;0.08914687;0.08893661;0.08720297;0.08411061;0.08023784;0.0765636;0.07349709;0.07124463;0.06961563;0.06843545;0.06755915;0.0669507;0.06625649;0.06526509;0.06428634;0.06360342;0.06334867;0.06372421;0.06481431;0.06689764;0.07000656;0.07405475;0.07916521;0.08504746;0.09135619;0.09767967;0.1036983;0.1092351;0.1144868;0.120024;0.1272372;0.1373603;0.1508431;0.1675274;0.1868846;0.2075854;0.2275773;0.2453805;0.2597234;0.2701007;0.277137;0.2818393;0.2847192;0.2861351;0.2864781;0.2856972;0.2842736;0.2825069;0.2800141;0.2771428;0.2743755;0.2712552;0.2683891;0.2659697;0.2637756;0.2620449;0.2606811;0.2594485;0.2583534;0.2573301;0.2559394;0.2539981;0.2516941;0.2486668;0.2451925;0.2413639;0.2370011;0.2324992;0.2281365;0.2238298;0.2202127;0.2177191;0.2144637;0.2114079;0.2089828;0.2070843;0.2061137;0.2059447
0.09206834;0.08053684;0.07014312;0.05758815;0.04885074;0.04268514;0.03722806;0.03512457;0.03441873;0.0333893;0.03338379;0.03358221;0.03386338;0.03403541;0.03395155;0.03371711;0.03321773;0.03234767;0.03186648;0.0308727;0.02988664;0.02908023;0.02784583;0.0263645;0.02490005;0.02396805;0.02305103;0.02267115;0.02247931;0.0223257;0.02236694;0.02238157;0.0229424;0.02268557;0.02380371;0.02518305;0.02909531;0.03338075;0.03957724;0.04647768;0.0539403;0.06071196;0.06680211;0.07237925;0.07749794;0.08198333;0.08530483;0.08692443;0.08661558;0.08489399;0.0818476;0.07798892;0.07435838;0.07127714;0.0690973;0.06744826;0.06627557;0.06543455;0.06483135;0.0641511;0.06319574;0.06222717;0.06157605;0.06128809;0.06168862;0.06282049;0.06485707;0.06793537;0.07198911;0.07703905;0.08290939;0.08914739;0.09545424;0.1014342;0.1069425;0.1122027;0.1177572;0.124951;0.1350514;0.148429;0.1650803;0.1843404;0.2049115;0.2247583;0.2424174;0.2566296;0.2669549;0.2739844;0.2786885;0.2815066;0.2830215;0.28343;0.2826955;0.2813195;0.27964;0.2771676;0.2743822;0.2716655;0.2686264;0.2658304;0.2634719;0.2613158;0.2595735;0.2582261;0.2569979;0.2559195;0.2549355;0.253546;0.2516686;0.2494096;0.2464132;0.2429919;0.2392266;0.2349417;0.2304882;0.2261852;0.2219524;0.2183893;0.2159467;0.2127409;0.2097332;0.2073697;0.2055396;0.2046422;0.2045231
0.09294864;0.08138815;0.07108833;0.05860106;0.04992504;0.04369657;0.0384385;0.03617816;0.03558279;0.03467007;0.03456143;0.034738;0.03498736;0.03531122;0.03520145;0.03484224;0.03441086;0.03346094;0.03288548;0.03208615;0.03103444;0.03011532;0.02894244;0.02741572;0.02605932;0.025105;0.02425411;0.02384172;0.02359008;0.02348438;0.02352186;0.02350155;0.02406855;0.02385673;0.02490716;0.02633572;0.030216;0.03452681;0.04070931;0.04763869;0.05513145;0.06181584;0.06792889;0.07353067;0.07863524;0.08314076;0.08640632;0.08803397;0.0877896;0.0860792;0.08299376;0.07915521;0.07554829;0.07245807;0.07023868;0.06866574;0.06743344;0.06663626;0.06602684;0.0653116;0.06439526;0.06343896;0.06277741;0.06254492;0.0629174;0.06402396;0.06607985;0.06915991;0.0731786;0.07821853;0.08408497;0.09035788;0.09664353;0.1026037;0.1081066;0.1133431;0.1188599;0.1260239;0.1360846;0.14945;0.1659859;0.1851438;0.2056524;0.2253532;0.2429981;0.2571225;0.2674252;0.2744292;0.2791341;0.2820118;0.2835137;0.2838969;0.2831981;0.281851;0.2801796;0.2777565;0.2749583;0.2722914;0.2692764;0.2665058;0.2641737;0.2620606;0.2603561;0.2590184;0.2578451;0.2567695;0.2557812;0.2544636;0.2525892;0.2503526;0.2473929;0.2440044;0.2402695;0.2359889;0.2315956;0.227318;0.2230985;0.2195892;0.2171708;0.2139922;0.2110305;0.2086951;0.2068729;0.2059735;0.2058577
0.09312634;0.08155045;0.07109123;0.05846135;0.0497982;0.04345318;0.03830575;0.03594198;0.03543351;0.03449517;0.03428911;0.03443247;0.03470953;0.03498054;0.03489193;0.03455873;0.0340954;0.03323204;0.03263886;0.03178042;0.03079877;0.02997588;0.02874225;0.02720707;0.02583236;0.02490456;0.02398349;0.02364442;0.02342407;0.02329219;0.02337733;0.02335691;0.02388935;0.02368266;0.02473753;0.02617215;0.03005248;0.03424799;0.04043588;0.04729111;0.05478546;0.06147329;0.06759386;0.07305088;0.07819261;0.08270653;0.08598576;0.08751461;0.08731071;0.085587;0.0825142;0.07872404;0.07507101;0.07205341;0.06984851;0.06825947;0.06703833;0.0662267;0.06565296;0.06494858;0.06401888;0.06307213;0.06237691;0.06211113;0.06249329;0.06360857;0.06565063;0.06867528;0.0726423;0.07772664;0.08353569;0.08971311;0.09596068;0.1019209;0.1073687;0.1125694;0.1180855;0.125204;0.1352497;0.1485921;0.1652276;0.1844704;0.205135;0.2251006;0.2428835;0.2571756;0.2677136;0.2747847;0.2795281;0.2823822;0.2839199;0.284296;0.2835644;0.2821655;0.2803848;0.2779181;0.2750942;0.2723251;0.2692512;0.2664058;0.2640212;0.2618549;0.2600866;0.2587355;0.2575314;0.2564246;0.2553879;0.2540096;0.2520922;0.2498122;0.2467934;0.2433297;0.2394785;0.2351193;0.2306425;0.2262631;0.2219858;0.2183543;0.2158254;0.2125793;0.2095454;0.2071545;0.2052798;0.2043492;0.2042033
0.09420159;0.08273998;0.07219787;0.05977008;0.05100793;0.04483298;0.03953981;0.03734344;0.03671566;0.0357511;0.03560302;0.03579396;0.03612553;0.03635662;0.03625546;0.03595178;0.03548815;0.03459246;0.03400673;0.03308343;0.03210581;0.03133967;0.03008174;0.02860304;0.02718849;0.02625768;0.02529629;0.02494426;0.02468363;0.02454572;0.02459709;0.02461928;0.02515271;0.02498753;0.02597037;0.02745028;0.03129936;0.03563706;0.04188351;0.04876591;0.05624546;0.06303219;0.06917418;0.07472389;0.0798478;0.08437097;0.08765588;0.08921696;0.08900467;0.08726797;0.08423491;0.08035973;0.07674143;0.07367005;0.0714397;0.06986082;0.06869963;0.06781577;0.06722581;0.06657297;0.06559591;0.06463052;0.06393769;0.06374013;0.06410696;0.06521004;0.0672437;0.07032879;0.07439278;0.07944063;0.08526351;0.09149331;0.09773819;0.1036784;0.1091568;0.1143117;0.11981;0.1269034;0.1368405;0.1500222;0.1663447;0.1852318;0.2054301;0.2248061;0.2421115;0.2559891;0.2661458;0.27297;0.2775952;0.2803804;0.2818455;0.2822354;0.2815498;0.2801766;0.2785231;0.2760551;0.2733556;0.2706765;0.26768;0.2649392;0.2626162;0.2605274;0.2588144;0.257498;0.2563263;0.2552038;0.2542123;0.2528355;0.250999;0.2487499;0.2458134;0.2424489;0.2387373;0.234512;0.2301565;0.225913;0.2217349;0.2182461;0.2158112;0.2126361;0.2097148;0.2073676;0.2055242;0.2046166;0.2044808
0.09077065;0.07933553;0.06894881;0.05613179;0.04750608;0.04123734;0.03611367;0.03390928;0.03342584;0.03284411;0.03285595;0.03310252;0.03344936;0.03377149;0.0337079;0.03340715;0.0329162;0.03187857;0.03119038;0.03033967;0.02927331;0.02846115;0.02721552;0.02573261;0.02425159;0.02338299;0.02251632;0.02216327;0.02197914;0.02183344;0.0218485;0.0219196;0.02246606;0.02225321;0.02323588;0.02465381;0.02849622;0.03275071;0.03903156;0.04610546;0.053851;0.06063409;0.06673171;0.0722904;0.07742687;0.08209352;0.08558305;0.08749208;0.08741383;0.08578959;0.08271971;0.0787337;0.07495184;0.07185249;0.06958023;0.06795435;0.06674499;0.06582451;0.06516818;0.06443373;0.06338342;0.0623843;0.0617309;0.06146412;0.06183914;0.06295705;0.06503769;0.06817983;0.07230409;0.07751075;0.08346549;0.08985756;0.09620676;0.102294;0.1078735;0.1131776;0.1188036;0.1260604;0.1362779;0.1498666;0.1666876;0.1862725;0.2071306;0.227215;0.2451069;0.2594069;0.2697425;0.2766704;0.2812442;0.2839411;0.285286;0.2855443;0.2845865;0.2829221;0.2809581;0.2782504;0.2753031;0.2724355;0.269347;0.2666017;0.2643104;0.2622414;0.2606489;0.2594577;0.2583938;0.2574312;0.2564753;0.2551574;0.25333;0.2510752;0.2480975;0.2446419;0.2408291;0.2364469;0.2319307;0.227544;0.2232298;0.2195951;0.2170446;0.2137389;0.2106937;0.2082466;0.2062525;0.2051132;0.2047341
0.09225056;0.08070884;0.0701456;0.05735486;0.04849475;0.04241709;0.03715636;0.03493349;0.03460208;0.0337426;0.03369957;0.0341182;0.0345252;0.03470337;0.0346183;0.03429416;0.03370985;0.03277687;0.03211234;0.0311471;0.03013973;0.02928622;0.02812711;0.02651128;0.02519949;0.02424718;0.0233152;0.02304452;0.02280906;0.0226113;0.02266567;0.02267409;0.02324136;0.02304162;0.02404591;0.02548069;0.02929369;0.03353971;0.03988866;0.04703488;0.05481072;0.06158197;0.06778085;0.07333028;0.07855809;0.0832486;0.08682312;0.08870495;0.08862828;0.08694058;0.08386574;0.07982953;0.07604682;0.07287713;0.07057318;0.06891212;0.0677026;0.06685522;0.06614576;0.06535696;0.0643272;0.06332168;0.06264772;0.0623521;0.06272831;0.06386849;0.06595952;0.06916639;0.07334142;0.07858075;0.08457284;0.09100677;0.09744843;0.1035893;0.1092026;0.1145945;0.1202619;0.1275878;0.1378778;0.1515711;0.1685552;0.1882221;0.209192;0.2293439;0.2473011;0.2615787;0.2719461;0.2789038;0.2834068;0.2861029;0.2874577;0.2877027;0.2867675;0.2851517;0.2831557;0.2804624;0.2775209;0.2746744;0.271573;0.268807;0.2665181;0.2644803;0.2628691;0.2616859;0.2606025;0.2596363;0.2587294;0.2573915;0.2555407;0.2532918;0.2503045;0.246847;0.2430267;0.2386583;0.234093;0.2296873;0.2253687;0.2217405;0.2191629;0.2158577;0.2127909;0.2103189;0.2083367;0.2072147;0.2068485
0.09003641;0.07868902;0.06825287;0.05586605;0.04728125;0.04104768;0.03591019;0.0336794;0.03328688;0.0326695;0.0325853;0.0328455;0.0332656;0.03351831;0.03338047;0.03307729;0.03261238;0.03151935;0.03091118;0.02996298;0.02897401;0.02818008;0.02696098;0.02545143;0.0241519;0.02320952;0.02233084;0.02200231;0.02177031;0.02161333;0.0216987;0.02169074;0.02221091;0.02200161;0.02302529;0.02436632;0.02813524;0.03239577;0.03856537;0.04568571;0.05324652;0.05991976;0.06591296;0.07133643;0.07640667;0.08098315;0.08448926;0.08627979;0.08622607;0.08466122;0.08163277;0.0777929;0.07399359;0.07088888;0.0687068;0.06712791;0.06591448;0.0650412;0.06437919;0.06359423;0.06259201;0.0616319;0.0609355;0.06068592;0.0610785;0.06216849;0.06422843;0.06733721;0.07141609;0.07651585;0.08237888;0.08860581;0.09485528;0.1008015;0.1062911;0.1114807;0.1169901;0.124073;0.134019;0.1473187;0.1637918;0.182899;0.2033316;0.2230221;0.2405611;0.2545928;0.2647805;0.2715926;0.2761001;0.2787592;0.2801089;0.2803327;0.2793827;0.2777532;0.2758287;0.273153;0.2702202;0.267391;0.2643571;0.2616363;0.2593936;0.2573842;0.255781;0.2545925;0.2535619;0.2525662;0.2516954;0.2503882;0.2485706;0.2463637;0.2434372;0.2400551;0.2363084;0.2320206;0.2275937;0.2232856;0.2190733;0.2155168;0.2130327;0.2098269;0.2068473;0.2044366;0.2024985;0.2013962;0.2010264
0.09018615;0.07870106;0.06833901;0.05560764;0.04715445;0.04089566;0.03572348;0.03338714;0.03304537;0.03230467;0.03221381;0.03256855;0.03298041;0.03312042;0.03303328;0.03270624;0.03210284;0.0311389;0.03045536;0.02956842;0.02851739;0.02770158;0.02643351;0.02493787;0.02361598;0.0226261;0.02168845;0.02140702;0.02118023;0.02100019;0.02107331;0.02105214;0.02161566;0.02135687;0.02236811;0.0238072;0.02763829;0.03186438;0.03811747;0.04523326;0.05287609;0.05963115;0.06566646;0.07119545;0.07631703;0.08088135;0.0844724;0.0863027;0.08622123;0.08456882;0.08155894;0.07757261;0.07382202;0.07068154;0.06841514;0.06677694;0.06554951;0.06469046;0.0640157;0.06324364;0.0622065;0.06121897;0.06050366;0.06027576;0.06061444;0.06173847;0.06379145;0.06693745;0.07105017;0.07622426;0.08216091;0.08847014;0.09484645;0.1009021;0.1064679;0.1117258;0.1173487;0.1245965;0.1347809;0.1483308;0.1652241;0.1848476;0.2058579;0.2260965;0.2441994;0.2586582;0.269157;0.2762299;0.2808596;0.283618;0.284935;0.2852553;0.2842784;0.2825852;0.2805874;0.277886;0.2748522;0.2719705;0.2688703;0.2660736;0.2637551;0.2616448;0.2600469;0.2588569;0.2577654;0.2567472;0.2558443;0.2545162;0.2526608;0.2503953;0.2473759;0.243947;0.2401174;0.2356901;0.2311434;0.2266874;0.222359;0.2187286;0.2162068;0.2128842;0.2098393;0.2073662;0.2053703;0.204213;0.203774
0.0906631;0.07913251;0.0686979;0.05620963;0.0476133;0.04119675;0.03606782;0.03387997;0.03342479;0.03268988;0.03269427;0.03307075;0.03343406;0.03363246;0.03358524;0.03332276;0.03271738;0.03172618;0.03111073;0.03015032;0.02913559;0.02830648;0.02707812;0.02552908;0.0241714;0.02327339;0.02234511;0.02201504;0.02175055;0.02163719;0.02173775;0.02176775;0.02227151;0.02203249;0.0230676;0.02448394;0.02833581;0.0325528;0.03883649;0.04594807;0.05361956;0.0604795;0.06658189;0.0721392;0.07728018;0.08197873;0.08551491;0.08739083;0.08728568;0.08566325;0.08262414;0.07862459;0.07487277;0.07169395;0.06945159;0.06780791;0.06657762;0.06568874;0.06506212;0.06428298;0.0632632;0.06229123;0.06159363;0.06131256;0.06171192;0.06281321;0.06491183;0.06807954;0.07220042;0.0774248;0.08337773;0.08974442;0.09613673;0.1022289;0.1078472;0.1131558;0.1188001;0.126118;0.1363526;0.150007;0.1669763;0.1866993;0.2077733;0.228145;0.2462643;0.2607724;0.2713016;0.2784097;0.2830385;0.2858037;0.2872013;0.2874503;0.2865161;0.2848502;0.2828396;0.2801105;0.277144;0.2742594;0.2711466;0.2683449;0.2660302;0.2639863;0.2623821;0.2611817;0.2601103;0.2591446;0.2582177;0.256875;0.2550422;0.2527651;0.2497949;0.2463216;0.2424359;0.2380246;0.233475;0.2290314;0.2246718;0.2210176;0.2184521;0.2151242;0.2120445;0.2094931;0.2074338;0.2062039;0.2056782
0.09217184;0.08054093;0.0698528;0.05727334;0.04850224;0.04195855;0.03668385;0.03419846;0.03360612;0.03277093;0.03276758;0.03293614;0.03331945;0.03350985;0.03318413;0.03289361;0.03244429;0.03148996;0.03079023;0.02995728;0.02896058;0.02797656;0.0268229;0.02529266;0.02396867;0.02295801;0.02207772;0.02166636;0.02142012;0.02135411;0.02142818;0.02130168;0.02184052;0.02171696;0.02281719;0.02425911;0.02817739;0.03251959;0.03880922;0.04572284;0.0533119;0.05996808;0.06602433;0.07149123;0.07650865;0.08104014;0.08431925;0.08596053;0.08578211;0.0841192;0.08105776;0.07726487;0.07357771;0.07048795;0.0682285;0.06658933;0.06532165;0.06452561;0.06388158;0.06311406;0.06209857;0.06111699;0.06044194;0.06010542;0.06045985;0.06158043;0.06365279;0.06674959;0.07083945;0.07592482;0.08181126;0.08808653;0.09433116;0.1002978;0.1058147;0.1110549;0.1166923;0.124036;0.1343605;0.1481662;0.1652435;0.1851276;0.2063072;0.2267564;0.2448287;0.2593586;0.2698334;0.2768344;0.2814304;0.2842138;0.2855464;0.2858063;0.2848385;0.2832073;0.2812545;0.2785442;0.2755048;0.2725524;0.2692958;0.2663752;0.2638792;0.2616202;0.259828;0.2584516;0.2572189;0.2561105;0.2550271;0.253614;0.2516395;0.249269;0.246165;0.2425902;0.2386305;0.2341366;0.229547;0.225061;0.2206424;0.2169708;0.214425;0.211125;0.2080868;0.2056073;0.2037292;0.2028652;0.2027954
0.09347765;0.08223985;0.0714317;0.05902437;0.05012116;0.04372328;0.03828964;0.03591272;0.03538204;0.03443265;0.03461995;0.03484884;0.03529517;0.03565574;0.03539941;0.03492828;0.03444874;0.03353316;0.03279981;0.03201009;0.03094503;0.02996061;0.02880486;0.02724902;0.02588941;0.02490369;0.02395085;0.02353907;0.02330957;0.02321885;0.02326953;0.02311884;0.02360191;0.02354727;0.024608;0.02611713;0.03002891;0.03454403;0.04088447;0.04785851;0.05550342;0.06229284;0.06828911;0.0737984;0.07886287;0.08335783;0.08666439;0.08835913;0.08818671;0.08649629;0.08344893;0.07963963;0.07596381;0.07291245;0.07063087;0.0689778;0.06772235;0.06688451;0.06620417;0.06549114;0.06450177;0.06349916;0.06276167;0.06249462;0.06283778;0.0639938;0.0660829;0.06918558;0.07328623;0.07844823;0.0843253;0.0905721;0.09677445;0.1027405;0.1082269;0.1134385;0.1189621;0.1262865;0.1364332;0.1499904;0.1667888;0.186221;0.2069426;0.2268967;0.2446139;0.2588057;0.2690638;0.2758836;0.2804393;0.2831277;0.2844805;0.2847581;0.2838607;0.2822709;0.2803601;0.2777108;0.2747526;0.2718951;0.268747;0.2658576;0.2634491;0.2613;0.2595322;0.2582305;0.2570498;0.2559617;0.2549303;0.2535515;0.2516289;0.2493244;0.2462875;0.2428244;0.2389724;0.2345981;0.2301239;0.2257517;0.2214478;0.2179055;0.2154815;0.212272;0.2093086;0.2068985;0.2050719;0.2042695;0.2042216
0.09400346;0.08264301;0.07200853;0.05957837;0.05078919;0.04412856;0.03861073;0.03634934;0.03582947;0.03494212;0.03490084;0.03515651;0.03561605;0.0358182;0.03549685;0.03517718;0.03481913;0.03383464;0.03303558;0.03223317;0.03121393;0.03029008;0.02903693;0.0275727;0.02614956;0.02515586;0.02421349;0.0238224;0.0235205;0.02339737;0.02349167;0.02338854;0.02396368;0.02374827;0.0249336;0.02637908;0.03029;0.03472332;0.04110185;0.04807206;0.05575536;0.06250457;0.06853399;0.0741116;0.07925048;0.08373745;0.08707964;0.08872869;0.08857735;0.08688309;0.08381998;0.07997694;0.07625771;0.07310893;0.07090361;0.06919146;0.06793107;0.06713928;0.066453;0.06570806;0.06469037;0.06370871;0.06300781;0.06269278;0.06307366;0.06422613;0.06628708;0.06945191;0.07356601;0.07878353;0.08469796;0.09103752;0.09731993;0.1033866;0.1089476;0.1141985;0.1198001;0.1272123;0.1375545;0.1512885;0.1682738;0.1879268;0.2087961;0.2289021;0.2466524;0.2608685;0.271106;0.277961;0.282477;0.2852015;0.2865254;0.2868111;0.285935;0.2843626;0.2824845;0.2798493;0.2769255;0.2741043;0.2709455;0.268091;0.2657319;0.2635634;0.2618314;0.2605632;0.2593821;0.2583154;0.2573079;0.2559314;0.25406;0.2517226;0.2487174;0.2452459;0.2413922;0.2370214;0.232534;0.2281451;0.223826;0.2202466;0.2178112;0.2145993;0.2115747;0.2090936;0.2071754;0.2061668;0.2059871
0.09445179;0.08301099;0.07196558;0.05934902;0.05053313;0.04414094;0.03880697;0.03628689;0.03579812;0.03503299;0.03508506;0.03535925;0.03584582;0.03611716;0.03590159;0.03555428;0.03507847;0.0340961;0.03337329;0.03253976;0.03162197;0.03068344;0.02941788;0.02783987;0.02651533;0.02543041;0.02457425;0.02417068;0.02391521;0.02381138;0.02388414;0.02376257;0.02429813;0.02414069;0.0252322;0.02680558;0.03069047;0.03519844;0.04157027;0.04861645;0.05636865;0.06322641;0.06928554;0.07493448;0.08001953;0.08464496;0.08796591;0.08966588;0.08946386;0.08773571;0.08468036;0.08088686;0.07711418;0.07407872;0.07173293;0.07004414;0.06881163;0.06794215;0.06728389;0.0665624;0.0655185;0.06453412;0.06383815;0.06351756;0.06388022;0.06501394;0.06715158;0.0703179;0.0744867;0.0797376;0.08566928;0.09205274;0.09832995;0.1044115;0.1099691;0.1152495;0.1208732;0.1282718;0.1385989;0.1522772;0.1692138;0.188832;0.2095963;0.2295352;0.247205;0.2613048;0.2714496;0.2782301;0.2827187;0.2854402;0.2867444;0.287045;0.2861438;0.2846057;0.2827435;0.2801447;0.2772285;0.274407;0.2713024;0.2684967;0.2661301;0.2639883;0.2622464;0.2609594;0.2597758;0.2587709;0.2577442;0.2563774;0.2545191;0.2521939;0.2492192;0.2457706;0.2419278;0.2375749;0.233128;0.2287652;0.2244586;0.2208798;0.2184519;0.2152315;0.2122587;0.2098708;0.2080616;0.2073189;0.2073296
0.09258825;0.08123708;0.07079607;0.05828912;0.04956664;0.04309503;0.03774484;0.03548706;0.03518723;0.03427418;0.034158;0.03450048;0.03509888;0.03534676;0.03500637;0.03465556;0.03428391;0.0333495;0.03271269;0.03187389;0.03090082;0.02996926;0.02876604;0.02715033;0.0258768;0.0248616;0.02404612;0.02367858;0.02335763;0.02326098;0.02329035;0.02326408;0.0237708;0.02359739;0.0247815;0.02619319;0.03010594;0.03450264;0.04088441;0.04785853;0.05550508;0.06221732;0.06824907;0.0737983;0.07882501;0.08339315;0.08666555;0.08835909;0.08818671;0.0864957;0.08347746;0.07972989;0.07605471;0.07296962;0.07074234;0.06911482;0.06790786;0.06709006;0.06645468;0.06570935;0.06471466;0.06373005;0.06303024;0.06275608;0.06309335;0.06426521;0.06634953;0.06948929;0.07358534;0.07874481;0.08462091;0.09088625;0.09706858;0.1030542;0.1085;0.1137108;0.1192734;0.126502;0.1366329;0.1501134;0.166789;0.1860034;0.2064479;0.2260467;0.243393;0.257283;0.2672774;0.2739434;0.278405;0.2810521;0.2823751;0.2826669;0.2818187;0.280297;0.2784523;0.2759263;0.2730509;0.2703241;0.2672695;0.2644857;0.2621725;0.2600987;0.258404;0.2571703;0.256057;0.255013;0.254008;0.2526778;0.250832;0.248587;0.2456255;0.2422362;0.2384561;0.2341684;0.2297809;0.2254947;0.2212231;0.2177405;0.2153701;0.2121796;0.2092022;0.2067834;0.204887;0.2039195;0.2037609
0.08529029;0.07451063;0.0642194;0.05241597;0.04432363;0.03870635;0.03404018;0.03182039;0.03133243;0.03055278;0.03041533;0.03059216;0.03098304;0.03112926;0.03094187;0.03067014;0.03019154;0.02928406;0.02850491;0.02781592;0.02687576;0.02606757;0.02494115;0.02351725;0.02216824;0.02123115;0.02036537;0.02000574;0.01985097;0.01979749;0.01979785;0.01971645;0.02019586;0.01998171;0.02107293;0.02222544;0.0258965;0.02985469;0.03576744;0.04221167;0.0494009;0.05573571;0.06144022;0.06670738;0.07158836;0.0758748;0.07908382;0.08080027;0.08068158;0.07913366;0.07623669;0.07254051;0.0689849;0.06604299;0.06392865;0.0624414;0.06122784;0.06045776;0.05980531;0.05908764;0.05817075;0.05720706;0.05660865;0.05630519;0.05661265;0.0576153;0.05953554;0.06239662;0.06625015;0.07110292;0.0765927;0.08258538;0.08854888;0.09431673;0.09957437;0.1045256;0.1097657;0.1165411;0.1260435;0.1387749;0.1547027;0.1733718;0.1935002;0.2130749;0.2305876;0.2447979;0.2551191;0.2620887;0.2667288;0.269543;0.2710376;0.2714201;0.2706418;0.2691453;0.2673049;0.2647654;0.2619174;0.2592208;0.2561584;0.2534447;0.2511536;0.2491528;0.2474998;0.2463119;0.2451907;0.2441682;0.243224;0.2418528;0.2400416;0.2378412;0.2349916;0.2316952;0.227982;0.2237071;0.2193298;0.2150364;0.2108599;0.2073709;0.2050258;0.2019144;0.1991301;0.1970369;0.1955522;0.1949811;0.1950084
0.08733132;0.07634117;0.06563254;0.05330103;0.04524741;0.03960347;0.03491773;0.03249572;0.03214901;0.03150732;0.0314634;0.03174419;0.03218373;0.03235544;0.03220275;0.0319915;0.0315871;0.0306017;0.02977281;0.02906189;0.02810596;0.02721661;0.02608975;0.02458599;0.02327021;0.02233589;0.02144208;0.02105905;0.02084414;0.02077413;0.02071575;0.02073414;0.02121947;0.02101679;0.02212931;0.02332835;0.02705205;0.03118875;0.03731084;0.04396444;0.05147694;0.05794089;0.06387743;0.06933505;0.07436245;0.07881798;0.08215995;0.08387635;0.08377648;0.0821269;0.07919191;0.07530874;0.07174723;0.06871513;0.06654152;0.06495246;0.06379928;0.06303246;0.06231298;0.06159333;0.06065286;0.05971112;0.05904855;0.05870079;0.05903767;0.06009418;0.06202953;0.06499658;0.06899231;0.07395489;0.07964437;0.08572099;0.09188972;0.09780893;0.1032399;0.1083276;0.1136448;0.1206037;0.1303328;0.1432773;0.1595861;0.1784631;0.198844;0.2185896;0.2362662;0.2505665;0.2608988;0.267912;0.2726269;0.2754296;0.2769227;0.2772919;0.2765389;0.2750904;0.2732514;0.2707225;0.2678751;0.2651883;0.262162;0.259464;0.2572076;0.2551428;0.2535149;0.2523525;0.2512844;0.2502183;0.2492848;0.2479258;0.2460931;0.2439106;0.2410272;0.237701;0.2339569;0.2296461;0.2251866;0.2208211;0.2165775;0.2130319;0.2105602;0.2073493;0.2045113;0.2023555;0.2007748;0.2000971;0.200049
0.08548111;0.07492979;0.06426112;0.05270274;0.04473544;0.0391099;0.03452467;0.03228014;0.03185509;0.03117258;0.03111441;0.03123837;0.03162918;0.03185622;0.03162109;0.03138787;0.03103305;0.03019205;0.02939958;0.0285666;0.02778075;0.02691875;0.02578237;0.0243991;0.02305455;0.0221086;0.02131698;0.02093536;0.02070324;0.02063018;0.02064377;0.02057244;0.02102968;0.02086755;0.02194031;0.02314805;0.0267891;0.03077435;0.03667511;0.04318763;0.05040583;0.05672868;0.06249528;0.06775251;0.07261598;0.07695904;0.08015062;0.08184014;0.08172677;0.0801518;0.07731359;0.07357926;0.07007793;0.06715634;0.06506284;0.06356885;0.06242669;0.06167223;0.06101238;0.06030723;0.05942543;0.05847024;0.05784011;0.05756672;0.05786669;0.05888445;0.06084464;0.06372428;0.06758176;0.07242411;0.07794791;0.08382241;0.08981951;0.09552624;0.1007774;0.1057025;0.1108672;0.1175734;0.1269586;0.1395138;0.1551786;0.1734413;0.1931818;0.2122851;0.2293748;0.2432938;0.2533616;0.2601828;0.2647546;0.2675521;0.2690367;0.2694312;0.2686792;0.2672891;0.2655496;0.2631069;0.2603536;0.2577272;0.2548113;0.2521984;0.2500114;0.2480472;0.2464633;0.2453268;0.2442834;0.2432727;0.2423722;0.241046;0.2393104;0.2371834;0.2344054;0.2311677;0.2275605;0.223409;0.2190895;0.2149207;0.2108252;0.2073899;0.2051209;0.2020583;0.1993584;0.1973101;0.1958693;0.1953252;0.1953973
0.08526207;0.07443077;0.06410392;0.05227707;0.04442353;0.03908183;0.03433593;0.03198582;0.0317716;0.03105139;0.03082309;0.03108204;0.03161683;0.03176132;0.03157688;0.03136387;0.03096564;0.03016737;0.02936858;0.028606;0.0277205;0.02694338;0.02585338;0.02446152;0.0231148;0.02216395;0.02138842;0.02104234;0.02082629;0.02075621;0.02069659;0.02071066;0.02116285;0.02099461;0.02202451;0.02327198;0.02686944;0.03093176;0.036791;0.04334066;0.05052213;0.05676723;0.0625703;0.06775402;0.0726507;0.07699472;0.08018769;0.08184058;0.08172674;0.08018194;0.07734517;0.07360861;0.07013503;0.06724057;0.06517238;0.06370255;0.06255651;0.06179825;0.06120922;0.0604972;0.05954142;0.05865185;0.05803824;0.05773794;0.05807562;0.05908909;0.06100412;0.06386212;0.06769837;0.07250082;0.07794771;0.08380315;0.08972345;0.09537269;0.1005484;0.1054177;0.1105444;0.1171525;0.1264528;0.1388359;0.1543794;0.1724726;0.1919879;0.2109808;0.227958;0.2417014;0.2517014;0.2585298;0.2630498;0.265801;0.2672256;0.2675933;0.2668611;0.2654903;0.263712;0.2612504;0.2585018;0.2559074;0.2529761;0.2503781;0.2481668;0.2461839;0.2446127;0.2434668;0.2424167;0.2413814;0.2404831;0.2391493;0.2373857;0.2352219;0.2324561;0.2292327;0.2256274;0.2214241;0.217164;0.2129828;0.2088793;0.2054309;0.2030778;0.1999927;0.1972649;0.1951523;0.1936411;0.193003;0.19296
0.08594952;0.07508801;0.06441827;0.05271085;0.0447451;0.03901977;0.03428238;0.0321408;0.03174343;0.03106578;0.03099613;0.03118845;0.03156865;0.03189908;0.03180066;0.0314067;0.03092091;0.03013369;0.02945537;0.02865741;0.02771828;0.02692574;0.02578237;0.02439632;0.02307196;0.0221576;0.02131074;0.02096841;0.02079736;0.02067979;0.02069834;0.02066458;0.02111482;0.02091005;0.02198728;0.02327521;0.02687042;0.03097272;0.03694539;0.04345388;0.05081926;0.05717673;0.06301212;0.06829729;0.07329743;0.07766782;0.08091772;0.08262592;0.08252426;0.08096361;0.07804171;0.07424939;0.0707234;0.0678393;0.06566846;0.06415642;0.06299822;0.06222782;0.06157823;0.06088033;0.05998238;0.05903516;0.05841232;0.05810193;0.05843143;0.05949979;0.06140731;0.06434064;0.06822862;0.07310338;0.07864366;0.08463057;0.09068362;0.0964279;0.1017127;0.1067097;0.1118933;0.1186648;0.1281659;0.140792;0.1565962;0.175005;0.1947944;0.2139715;0.2310881;0.2449789;0.2549822;0.2618398;0.2663934;0.269166;0.2706079;0.2709981;0.2702544;0.2688482;0.2671127;0.2646365;0.2618886;0.2592898;0.2563234;0.2537546;0.2515565;0.2495656;0.2479586;0.2468194;0.2457731;0.2447899;0.2438589;0.2425438;0.2407577;0.2386127;0.2358032;0.2325739;0.2289352;0.2247945;0.2204636;0.2162622;0.2121561;0.208717;0.2063278;0.2032418;0.2004531;0.1982935;0.1966452;0.1958364;0.1956522
0.0908153;0.07936946;0.06874952;0.05626143;0.04731259;0.04080812;0.03545339;0.03311161;0.03259651;0.03164726;0.03163658;0.03172163;0.0320581;0.03227204;0.0319204;0.03152825;0.03095536;0.0300079;0.0291722;0.02833605;0.02733101;0.02632054;0.02508488;0.02352875;0.02223841;0.02119156;0.02041062;0.02009417;0.0198355;0.01974669;0.01983453;0.01971856;0.02026838;0.02011107;0.02124469;0.02260947;0.02641317;0.03070402;0.03701568;0.04405483;0.0517774;0.05834313;0.06419425;0.06949662;0.07442635;0.07890821;0.08235722;0.08415952;0.08411042;0.08250809;0.07946894;0.07569773;0.07203072;0.06899069;0.06683725;0.0652118;0.06398185;0.0631727;0.06248897;0.0617386;0.06073907;0.05979377;0.05912921;0.05891553;0.05935966;0.06058759;0.06274015;0.06589068;0.07010946;0.07527721;0.08112606;0.08730652;0.09345476;0.09940204;0.1048457;0.1101478;0.1158812;0.1234719;0.1341239;0.1483315;0.1659196;0.1862179;0.2077068;0.2283016;0.2465932;0.261289;0.2718399;0.278904;0.2835681;0.2863208;0.2876062;0.2877749;0.2866172;0.2847091;0.2823726;0.2793323;0.2760135;0.2729178;0.2696131;0.2665988;0.2641416;0.2619327;0.2601913;0.2589;0.257761;0.2566962;0.2556699;0.25423;0.2522982;0.2499186;0.2468342;0.2431966;0.2391816;0.2346305;0.2299707;0.2254142;0.2209007;0.2171583;0.2146057;0.2112729;0.2081332;0.205569;0.2035092;0.2024523;0.2022382
0.09275249;0.08128162;0.07058737;0.05797131;0.04927167;0.04283311;0.03715075;0.03499763;0.03465827;0.03371862;0.03368011;0.03378522;0.03408376;0.03432702;0.03407012;0.03363175;0.03312165;0.03216067;0.03132069;0.03047653;0.02946004;0.02848917;0.02733292;0.02565816;0.02428672;0.02328156;0.02245123;0.0220701;0.02180275;0.02172427;0.02180104;0.02174112;0.02225311;0.02204567;0.02322605;0.02464269;0.02843828;0.03285984;0.03925991;0.04631767;0.05417126;0.06090472;0.06680449;0.07221904;0.07718993;0.0817727;0.08517776;0.08702;0.0869964;0.08536108;0.08231705;0.07849487;0.07473113;0.07169104;0.06947583;0.0678607;0.06663607;0.06582947;0.06515214;0.06437176;0.06334642;0.06242522;0.06180011;0.06151772;0.06194593;0.06318539;0.0653287;0.0685877;0.07276987;0.07799308;0.08390988;0.09013455;0.09628066;0.1021907;0.107738;0.1130519;0.1187692;0.1263688;0.1369555;0.151084;0.1685925;0.1886938;0.2100432;0.2304776;0.2485205;0.2630978;0.27358;0.2806137;0.2852598;0.2879697;0.2892767;0.2894594;0.2883519;0.2864264;0.2842147;0.2812334;0.2779729;0.2749159;0.2716086;0.2686859;0.266264;0.2640691;0.2623154;0.2610772;0.2599231;0.2588814;0.2578661;0.2564616;0.2545171;0.2521396;0.2490451;0.2454847;0.2414975;0.2369879;0.2323821;0.2277933;0.2233056;0.2195914;0.2170359;0.2136913;0.2105151;0.2078985;0.2058254;0.2046126;0.2042088
0.09134956;0.08004596;0.06938073;0.05670209;0.04781542;0.04156184;0.03590498;0.0334136;0.0330786;0.03228714;0.03204216;0.03221968;0.03266795;0.03280446;0.03252536;0.03202966;0.03144855;0.03041634;0.02951077;0.02878612;0.02774762;0.02674406;0.02553188;0.02388147;0.02255516;0.02153523;0.02067337;0.02030667;0.02004216;0.01994628;0.02002655;0.0198988;0.02040228;0.02023861;0.02133134;0.02277921;0.0265737;0.0309019;0.03724901;0.04436311;0.05204308;0.05875659;0.06460714;0.06990093;0.07493201;0.07948349;0.08288769;0.08471203;0.0846512;0.08303288;0.08003914;0.07619252;0.07250714;0.06942277;0.06722623;0.06561628;0.06434924;0.06355527;0.06283666;0.06209986;0.06104359;0.06013594;0.05946263;0.0592181;0.05963445;0.06087768;0.06304591;0.06623116;0.07038588;0.07557192;0.08143912;0.08763783;0.09378553;0.09969395;0.1052139;0.1105143;0.1162095;0.1237839;0.1344222;0.1486387;0.1662159;0.1865458;0.2080688;0.2287177;0.2470647;0.2617677;0.2723916;0.2794776;0.2841827;0.2869501;0.2882492;0.2884279;0.2872998;0.2853742;0.2830632;0.2800068;0.2766918;0.2735811;0.2702267;0.2672516;0.2647312;0.2625456;0.2607606;0.2594794;0.2583277;0.2572256;0.2562287;0.2547772;0.2528051;0.2504032;0.2472956;0.2436388;0.2396475;0.2350706;0.2303838;0.2257763;0.2212426;0.2174989;0.2148671;0.2115136;0.2083438;0.2057233;0.2036829;0.2026127;0.2023755
0.09185542;0.0803707;0.06954019;0.05684802;0.0479626;0.04157799;0.03598013;0.03365741;0.03323501;0.03222824;0.032121;0.0323882;0.032753;0.03292459;0.03270729;0.0322635;0.03176303;0.03072792;0.02995537;0.02910085;0.02794188;0.02698203;0.02589148;0.02424018;0.0228884;0.02193752;0.02102666;0.02066426;0.02040251;0.02038759;0.02041775;0.02032635;0.02089363;0.02071803;0.02183872;0.02322754;0.02709359;0.03137392;0.03771633;0.04486367;0.05265433;0.05936339;0.0652417;0.07063787;0.07569999;0.08023657;0.08373617;0.085543;0.08549271;0.0838251;0.08083238;0.07699256;0.07325232;0.07014076;0.0679775;0.06631905;0.0650856;0.06437239;0.06358262;0.06284884;0.06184093;0.06088977;0.06026223;0.0600403;0.06043835;0.06166516;0.06384066;0.06709626;0.07127893;0.07649644;0.08241878;0.08863326;0.09481863;0.1007657;0.1062809;0.1116358;0.1173906;0.1249953;0.1356177;0.1498904;0.1675307;0.187773;0.2092261;0.2298072;0.2480076;0.2626496;0.273181;0.2802629;0.2849369;0.287694;0.2889847;0.2891706;0.2880263;0.2861273;0.2838396;0.280848;0.2775928;0.2744873;0.2712278;0.2682715;0.2658055;0.2636377;0.2618873;0.2606222;0.2594569;0.2584064;0.2573966;0.2559651;0.2540448;0.2516561;0.2485526;0.2449688;0.2409729;0.2364264;0.2317917;0.2272113;0.2226992;0.2189508;0.2163559;0.2129798;0.2098264;0.2072183;0.2051531;0.2040082;0.2037164
0.09068351;0.07936662;0.06859172;0.05638232;0.04755919;0.04116976;0.03580736;0.0335635;0.03304358;0.0322319;0.03217508;0.03233281;0.03269526;0.03289553;0.03268354;0.03229437;0.0317076;0.03082016;0.03000519;0.0291308;0.02811778;0.02714896;0.02597459;0.02444129;0.02304982;0.02209561;0.02127668;0.02085647;0.02062805;0.02055371;0.02065812;0.02055837;0.02112081;0.02097464;0.02200294;0.02338886;0.02717231;0.03149179;0.03771675;0.04471324;0.05239055;0.058989;0.0647584;0.07008902;0.07497635;0.07945112;0.0828218;0.08457456;0.08457363;0.08296669;0.08003297;0.07628176;0.07256502;0.06956395;0.06742055;0.06580599;0.06458601;0.06383579;0.06315982;0.06238953;0.06139552;0.06045577;0.05981741;0.05960734;0.05997299;0.06125069;0.06334902;0.0665107;0.07062156;0.07568842;0.08149746;0.08757923;0.09357121;0.09944062;0.1048064;0.1099734;0.1155906;0.1229833;0.1333274;0.1471443;0.1642729;0.1839527;0.2048009;0.2247818;0.2425099;0.2567726;0.2670762;0.2739742;0.2785043;0.281211;0.282466;0.2826395;0.2815564;0.2797056;0.2774697;0.2745415;0.2713766;0.2683482;0.2651316;0.262222;0.2598048;0.2576679;0.2559468;0.2547117;0.253587;0.2525573;0.2515392;0.250142;0.2482253;0.2458691;0.2428464;0.2393382;0.2354225;0.2309812;0.2264394;0.2219612;0.2175591;0.2139174;0.2113931;0.2080872;0.2050121;0.202438;0.2003922;0.1992397;0.198872
0.09516893;0.08375843;0.07286174;0.06006774;0.05120699;0.04465834;0.0391574;0.03678422;0.03601885;0.03503468;0.03496175;0.03510359;0.03554772;0.03581357;0.0354769;0.03498058;0.03443561;0.03353964;0.03275172;0.03189302;0.03093841;0.02987166;0.02863502;0.02697232;0.02556692;0.02453241;0.02355595;0.02314769;0.02286218;0.02271628;0.02278603;0.02265732;0.02318632;0.02302577;0.02413815;0.02557737;0.02954458;0.03394828;0.04045239;0.04758092;0.05538274;0.06224733;0.06846993;0.07405277;0.07929139;0.08403477;0.08748634;0.08912771;0.08896703;0.08723191;0.08400685;0.0800551;0.07615219;0.07300189;0.07065953;0.06897639;0.06764297;0.06683311;0.0661291;0.06546732;0.06442913;0.06338438;0.06267241;0.06238575;0.06268902;0.06386887;0.06593998;0.06910765;0.07328838;0.07852869;0.08452301;0.09098466;0.0974027;0.1035849;0.1092437;0.114666;0.1203859;0.1279397;0.1384993;0.1524237;0.1697239;0.1897526;0.2111161;0.2315974;0.2497821;0.2643002;0.2747129;0.2816648;0.2862122;0.2889841;0.290356;0.2906205;0.2897067;0.288172;0.2862254;0.2836328;0.2806579;0.277791;0.274627;0.2717312;0.2692568;0.2670638;0.2652691;0.2639241;0.2627237;0.2616135;0.2605584;0.2591334;0.2571918;0.2548141;0.2517467;0.2481447;0.2441894;0.2396962;0.2350702;0.2305451;0.2261094;0.2224357;0.2199005;0.2165796;0.2134627;0.2109718;0.2090887;0.2082159;0.2081639
