11012;10937;10864;10791;10720;10649;10579;10510;10442;10375;10309;10243;10179;10115;10052;9990;9928;9868;9808;9749;9690;9632;9575;9519;9463;9408;9353;9299;9246;9193;9141;9090;9039;8989;8939;8890;8841;8793;8745;8698;8651;8605;8560;8515;8470;8426;8382;8339;8296;8253;8211;8170;8129;8088;8048;8008;7968;7929;7890;7852;7814;7776;7739;7702;7666;7629;7593;7558;7523;7488;7453;7419;7385;7351;7318;7285;7252;7220;7188;7156;7124;7093;7062;7031;7001;6970;6941;6911;6881;6852;6823;6794;6766;6738;6710;6682;6654;6627;6600;6573;6546;6520;6494;6468;6442;6416;6391;6366;6341;6316;6291;6267;6243;6219;6195;6171;6148;6124;6101;6078;6055;6033;6010;5988;5966
0.09603135;0.08582412;0.07559811;0.0642981;0.05630392;0.05056454;0.04563658;0.04314959;0.04242219;0.04117724;0.04064234;0.04021158;0.0402573;0.04024339;0.03960872;0.03927926;0.03887982;0.0379308;0.03732534;0.03659219;0.03572522;0.0350347;0.0339874;0.03253908;0.03135998;0.03049267;0.0297366;0.02944481;0.02919872;0.02912053;0.029192;0.02905159;0.02943335;0.0292575;0.03007377;0.03112413;0.03418063;0.03754405;0.04273975;0.04855697;0.05508848;0.06077711;0.06592156;0.0706768;0.07508692;0.07905178;0.08200787;0.08344454;0.08323266;0.08162782;0.07875873;0.07523765;0.07185064;0.06903222;0.06695974;0.06547619;0.06423865;0.06349986;0.06283405;0.06212438;0.06120978;0.06029953;0.05963975;0.05937387;0.05976563;0.06081847;0.06272949;0.06558115;0.06938584;0.07413137;0.07950065;0.08527357;0.09096363;0.09649087;0.1016585;0.1066518;0.1120337;0.1192052;0.1292956;0.1427982;0.1594502;0.1786344;0.1989723;0.218405;0.2355981;0.2494517;0.259414;0.2661481;0.2705798;0.2732397;0.2745341;0.2747545;0.2737436;0.272044;0.2699683;0.2672265;0.2641995;0.2613002;0.2581444;0.2552595;0.2528898;0.2507632;0.249014;0.2477152;0.2465499;0.2454782;0.2444609;0.243053;0.2411584;0.2388625;0.2358672;0.2324252;0.228591;0.2242819;0.2198501;0.2154976;0.2112149;0.2076861;0.2052912;0.2020673;0.1990817;0.1966621;0.1947722;0.1937775;0.1936356
0.09716622;0.08639577;0.07650313;0.06474379;0.05672785;0.05060706;0.04560087;0.04313132;0.04241701;0.0411511;0.04070359;0.04032751;0.04030833;0.04039813;0.04004037;0.03952808;0.03901803;0.03818775;0.0374477;0.03684478;0.03593323;0.03512805;0.03392942;0.03255966;0.03136396;0.03043361;0.02964058;0.02934355;0.02905805;0.0289869;0.02907337;0.02897744;0.0293511;0.02910235;0.02996842;0.03102174;0.03429396;0.03780958;0.04315447;0.04919299;0.05598638;0.06189512;0.06717638;0.0721327;0.07670657;0.08089724;0.08390135;0.08536441;0.0851985;0.08349518;0.08052464;0.07698636;0.07342159;0.07055113;0.06842787;0.06685175;0.06568107;0.06490289;0.0641761;0.06347588;0.06252395;0.06162612;0.06095201;0.06065352;0.06103755;0.06214949;0.0641148;0.06705033;0.07093193;0.07577889;0.08133413;0.0871915;0.09305392;0.09871698;0.1039691;0.1090903;0.1145692;0.1218804;0.1321961;0.1458421;0.1627756;0.1822121;0.2027341;0.2223275;0.2396762;0.2535996;0.2636348;0.270394;0.2748751;0.2775654;0.278885;0.2791331;0.2781546;0.2764572;0.2744579;0.2716947;0.2686647;0.2657591;0.2626177;0.259753;0.2573747;0.2552111;0.2534898;0.2521586;0.2509618;0.2498977;0.2488522;0.247466;0.2455638;0.2432415;0.2402333;0.2367694;0.2329191;0.2285686;0.2241103;0.2197291;0.2154014;0.2117979;0.2093243;0.2061129;0.2030628;0.2005492;0.1985429;0.1974183;0.1971
0.09641729;0.08546667;0.07543635;0.06416579;0.05593438;0.05008411;0.04488923;0.04263652;0.04189111;0.04053286;0.04000263;0.03966556;0.03971625;0.03975695;0.03929331;0.03883274;0.03832379;0.03745807;0.0367235;0.03607133;0.03511033;0.03431835;0.0332523;0.03184058;0.03064849;0.02971515;0.02895981;0.02861133;0.02842494;0.02839933;0.02844307;0.028253;0.02869733;0.02846416;0.02933897;0.0303317;0.03362213;0.03710743;0.04238468;0.0484335;0.05511902;0.0610348;0.06632686;0.07125981;0.07584523;0.07994496;0.08295796;0.08444481;0.08421081;0.08254836;0.07967916;0.07607179;0.0725953;0.06975012;0.06768308;0.06612516;0.06497364;0.06413804;0.06350545;0.06282413;0.06184272;0.06096149;0.06028395;0.06004464;0.0604214;0.06152388;0.063505;0.06644563;0.07029797;0.07517156;0.08065182;0.08649682;0.09231982;0.09796175;0.1031987;0.1082624;0.1137223;0.1210244;0.1312272;0.1448041;0.1616651;0.1809601;0.201374;0.2208972;0.2381311;0.252014;0.2620711;0.2687922;0.2732905;0.2759976;0.2772794;0.2775328;0.2765492;0.2749078;0.2728837;0.2701568;0.2671604;0.2642832;0.2611392;0.2583226;0.2559504;0.2538068;0.2520616;0.250787;0.2496078;0.2485444;0.2474969;0.2460978;0.2442315;0.2419423;0.2389539;0.235524;0.2316779;0.2273682;0.2229438;0.2185802;0.2142854;0.2107371;0.2083149;0.205122;0.2021299;0.1996802;0.1977422;0.1967417;0.1965614
0.09613155;0.08566475;0.07591274;0.06460794;0.05648268;0.0504729;0.04558591;0.04324874;0.0425385;0.04126344;0.0408142;0.04048888;0.04049804;0.04050211;0.0400843;0.03973477;0.03923936;0.03835858;0.03764453;0.03697656;0.03603712;0.03522769;0.03418596;0.03273397;0.03152791;0.03062459;0.02989133;0.02956825;0.02934578;0.02922248;0.02928304;0.02910415;0.02951705;0.02925951;0.03011919;0.03116948;0.03439153;0.03786721;0.04317296;0.04925344;0.05589322;0.06176107;0.06704429;0.07193369;0.07640064;0.08045118;0.08345663;0.08489475;0.08473878;0.0830752;0.08018548;0.076653;0.07313029;0.0703249;0.06823975;0.06669308;0.06552619;0.06472597;0.06405312;0.06335627;0.06243011;0.0615104;0.06086279;0.06060806;0.06095114;0.06204253;0.06403431;0.06694699;0.07081213;0.07558276;0.08104248;0.08684687;0.09257193;0.09817478;0.1033527;0.108358;0.1137409;0.1208878;0.1309698;0.1443975;0.1609327;0.180012;0.2001064;0.2193783;0.2364699;0.2501699;0.2601088;0.2667717;0.2712217;0.2738929;0.2751835;0.2754316;0.2744509;0.2727968;0.2707829;0.2680825;0.2650944;0.2622182;0.2591211;0.2563245;0.2539697;0.2518609;0.2501479;0.2488999;0.2477472;0.2466788;0.2457;0.2443229;0.2424604;0.2401824;0.2372624;0.2338372;0.2301312;0.2258127;0.2214537;0.2171773;0.2129261;0.2094553;0.2071056;0.2039683;0.2010132;0.1985521;0.196666;0.1956212;0.1954024
0.09523395;0.084633;0.07479677;0.06342102;0.0553725;0.04943589;0.04447586;0.04218006;0.04142668;0.04016907;0.0396818;0.03942395;0.03946851;0.03947988;0.03892567;0.03846815;0.03806586;0.03722868;0.03656434;0.03576389;0.03501747;0.03412055;0.03313265;0.03166975;0.03044591;0.02964966;0.02887932;0.02860879;0.02833782;0.02825497;0.02834519;0.02815853;0.02860635;0.02837549;0.02925558;0.03029082;0.03345663;0.03694775;0.04222728;0.04820143;0.05485304;0.06061925;0.06591528;0.0707467;0.07522735;0.07929725;0.08232245;0.08378912;0.08356968;0.08195515;0.07910592;0.0755784;0.07209082;0.06926136;0.06720997;0.06569254;0.06450122;0.06375501;0.06308261;0.06241401;0.06144319;0.06052748;0.05986135;0.05963337;0.05999833;0.06106734;0.06301592;0.06594332;0.06974223;0.07454321;0.07994909;0.085778;0.09152498;0.09710957;0.1022931;0.107303;0.1127428;0.1199201;0.1300237;0.1435468;0.1602847;0.1795588;0.1999487;0.2195354;0.2368867;0.2508039;0.2609527;0.2677034;0.2722337;0.2749364;0.2762491;0.2764817;0.2755198;0.2738172;0.2717594;0.2689775;0.2659481;0.262998;0.2598644;0.2570169;0.2546301;0.2524599;0.2507358;0.2494454;0.2482722;0.2472249;0.2461755;0.2448092;0.2428901;0.2405735;0.2375834;0.2340879;0.2302908;0.2259349;0.2214612;0.2170747;0.2127657;0.2091944;0.206729;0.2035322;0.2005085;0.197975;0.1959595;0.1948118;0.1944929
0.09125286;0.08067429;0.0708832;0.05947519;0.05145171;0.04549309;0.04054317;0.0382012;0.03738633;0.03622842;0.03575793;0.03538982;0.03542789;0.03550796;0.03506904;0.03459387;0.03415637;0.03331605;0.03257976;0.0318566;0.03100683;0.03018124;0.02916102;0.02762468;0.02643118;0.02557219;0.02477949;0.02441077;0.02421014;0.02405181;0.02410739;0.02388725;0.02432388;0.02408844;0.0249858;0.02609106;0.02936271;0.03291344;0.03828678;0.04430057;0.0509549;0.05680461;0.06211095;0.06695934;0.07148808;0.0756235;0.07867008;0.08026283;0.08015307;0.07854409;0.0757144;0.07213785;0.06867401;0.06578096;0.06370302;0.06214524;0.06097361;0.06022396;0.05956826;0.05892949;0.05793912;0.05704785;0.05638805;0.05607594;0.05635341;0.05741204;0.05922683;0.06204763;0.0657632;0.07046855;0.07583618;0.0815724;0.08726967;0.09279881;0.09789078;0.1028208;0.1080107;0.1149172;0.1245409;0.1373915;0.1533868;0.1719659;0.1918481;0.2109935;0.2280227;0.2416769;0.2514712;0.2580674;0.2624248;0.2650158;0.2662579;0.2665319;0.2656039;0.2640534;0.2621643;0.2595549;0.2566855;0.2539457;0.2509385;0.2482095;0.2459058;0.2438805;0.2422126;0.2410093;0.2399294;0.2389283;0.2380111;0.2367069;0.234872;0.2326782;0.2298106;0.2264321;0.2226994;0.2185141;0.2141831;0.2099596;0.2057717;0.2023492;0.2000546;0.1969595;0.1940713;0.1916963;0.1899152;0.1891048;0.1890689
0.09061005;0.08051904;0.07072174;0.05972928;0.05195914;0.04612112;0.04117128;0.03878075;0.03803278;0.03689626;0.03638038;0.03611657;0.03614993;0.03615931;0.03572009;0.03531148;0.03490505;0.03400636;0.03335755;0.03279656;0.03181538;0.03107127;0.03006482;0.02863609;0.02734497;0.0264661;0.02572039;0.02539145;0.02517581;0.02506056;0.0250778;0.02482884;0.02527083;0.02500428;0.02578865;0.02682798;0.03004093;0.0334643;0.03871667;0.04453814;0.05103608;0.05680905;0.06200317;0.06681529;0.07127749;0.07527424;0.07825491;0.07978466;0.07965586;0.07808599;0.07527301;0.07174058;0.06829011;0.06543734;0.06342724;0.06185145;0.06073913;0.05994558;0.05932169;0.05861748;0.05766019;0.05675312;0.05607917;0.05579701;0.0560392;0.05704178;0.05886315;0.06158842;0.06527153;0.06984634;0.07512168;0.08076563;0.0863499;0.09178457;0.09682475;0.1016079;0.1067221;0.113504;0.1229284;0.1355381;0.1512341;0.1694992;0.1890227;0.2078962;0.2246269;0.2381102;0.2478557;0.2543604;0.2586701;0.26125;0.2625065;0.2627837;0.2618977;0.2603732;0.2585699;0.2560191;0.2532303;0.250515;0.2475472;0.2448502;0.2425989;0.2405652;0.2389657;0.2377545;0.2366779;0.2356982;0.2347471;0.2334471;0.2316963;0.2294764;0.2266111;0.223317;0.2196515;0.2154977;0.2112173;0.2070457;0.2029095;0.1995286;0.1972691;0.1941916;0.1913534;0.189018;0.187247;0.1864332;0.1863995
0.0907908;0.08050785;0.07056648;0.05945732;0.05142127;0.04581292;0.04080978;0.03853467;0.03773656;0.03634813;0.03599141;0.03572127;0.03577009;0.03587931;0.03546274;0.03502226;0.03456039;0.03373186;0.03306212;0.03237246;0.03152506;0.03068895;0.02958702;0.02822288;0.02706336;0.02620427;0.02539596;0.02510913;0.02484513;0.02470723;0.02475183;0.02458938;0.02500007;0.0247411;0.02553487;0.02662528;0.02984232;0.03334695;0.03859946;0.04446008;0.05095885;0.05676943;0.06200116;0.06685302;0.07123838;0.0754092;0.07843178;0.07992193;0.0797896;0.07818526;0.0753969;0.07186344;0.06837933;0.06552278;0.06350993;0.06193089;0.06076533;0.0600214;0.05939569;0.05873793;0.05777583;0.05684429;0.05621158;0.05590429;0.05616482;0.05720647;0.05902497;0.06180799;0.06548706;0.0700792;0.0753726;0.08107281;0.08671376;0.09218619;0.09726229;0.1021003;0.1072713;0.1140954;0.1235882;0.1363143;0.1520735;0.1704675;0.1900643;0.2089558;0.2257932;0.2393104;0.2490591;0.2556458;0.2599606;0.2625304;0.2638442;0.2641017;0.2632511;0.2617314;0.2598571;0.2573377;0.2545375;0.2518172;0.248841;0.2461722;0.2439149;0.2418759;0.2402736;0.2390771;0.237996;0.2370174;0.2360871;0.2348133;0.233031;0.230843;0.2279873;0.2246717;0.2210039;0.2168474;0.2125879;0.2084102;0.2042728;0.2009257;0.1986575;0.1955978;0.1927485;0.1904222;0.1886215;0.1877798;0.1877379
0.08922757;0.07912011;0.06951301;0.05844766;0.05060244;0.04507523;0.04008629;0.03783646;0.0370548;0.03579608;0.03540664;0.03522206;0.0352731;0.03534744;0.03497865;0.03453434;0.03413355;0.03323377;0.0326395;0.03209218;0.03118316;0.03030911;0.02940293;0.02800521;0.02677973;0.02590147;0.02513728;0.02478928;0.02455786;0.02452826;0.02454306;0.024423;0.02479942;0.02450403;0.02534503;0.02644278;0.02965731;0.03308581;0.03826616;0.04413261;0.05056064;0.05626457;0.06135451;0.06606804;0.07042559;0.07447395;0.07739954;0.07887701;0.07876756;0.077248;0.07455676;0.07110192;0.06776475;0.06498685;0.06296527;0.06148062;0.06037795;0.05964374;0.05902724;0.05840425;0.05745192;0.05659378;0.05594735;0.05564449;0.05595264;0.05697688;0.05876161;0.06146544;0.0650933;0.0695748;0.0747565;0.08029143;0.08577927;0.09113573;0.09602805;0.1007366;0.1057381;0.1123777;0.1215724;0.1339083;0.1492146;0.1670894;0.1861742;0.2045824;0.2210167;0.2342587;0.2438231;0.2501986;0.2544847;0.257018;0.2582754;0.2585447;0.2576715;0.2562022;0.2543979;0.2519195;0.2491836;0.246526;0.2436478;0.241024;0.2388029;0.2368315;0.2352604;0.2341001;0.2330471;0.2321142;0.2311993;0.2299304;0.2281912;0.2260378;0.2232789;0.2200365;0.2164625;0.2124095;0.2082519;0.2041778;0.2001593;0.1969034;0.1947415;0.1917785;0.1890126;0.1867864;0.1850944;0.1843926;0.184429
0.0926284;0.08220292;0.07246517;0.06110417;0.05284462;0.04679012;0.04179388;0.03937897;0.03860325;0.03738542;0.03711126;0.03695112;0.03697759;0.03700028;0.03651958;0.03607989;0.03560598;0.03469193;0.03410015;0.03346405;0.03252907;0.03171517;0.03057327;0.02916361;0.02788194;0.02694928;0.02623521;0.0258677;0.02559129;0.02547291;0.02552217;0.02530299;0.02577138;0.02553428;0.02639387;0.02745246;0.03077395;0.03438155;0.03981094;0.0458466;0.05263356;0.05861622;0.06397312;0.06901463;0.0736292;0.07779926;0.08095177;0.08252766;0.08236704;0.08075907;0.07783195;0.07418273;0.07068171;0.06775129;0.06563728;0.0640512;0.06287905;0.06210132;0.06147112;0.06075148;0.05975774;0.058863;0.05819986;0.0578608;0.0581816;0.05920292;0.06110764;0.06396072;0.06778882;0.07255105;0.07800546;0.08386625;0.08969297;0.09533484;0.1005087;0.1054846;0.1107706;0.1177561;0.1274881;0.1404367;0.1565225;0.1751293;0.1949801;0.2140927;0.2309645;0.2445582;0.2543529;0.2608859;0.2652151;0.2678191;0.2691199;0.2693884;0.2685282;0.2670292;0.2651894;0.2626907;0.2598656;0.2571819;0.2541975;0.2515328;0.2492585;0.2472481;0.2456249;0.2444253;0.2433604;0.2423784;0.2414461;0.2401933;0.2383934;0.236186;0.2333511;0.2299837;0.2263199;0.2221095;0.2178082;0.2135814;0.2093968;0.2059883;0.2036774;0.2005902;0.1976421;0.195244;0.193378;0.1923795;0.1922276
0.09551217;0.0847056;0.07489838;0.06359117;0.05567587;0.04979331;0.04477993;0.04246881;0.0417515;0.04045001;0.04011421;0.03995789;0.04008546;0.04015738;0.03963242;0.03915964;0.03869759;0.03782243;0.0371044;0.03649508;0.03546664;0.03458288;0.03352536;0.03208048;0.03074286;0.02992206;0.02913365;0.02872768;0.02841349;0.02830707;0.02828387;0.02808827;0.02844068;0.02818356;0.02894962;0.03003429;0.03326288;0.03679454;0.04215323;0.0482353;0.05496565;0.0609212;0.06632605;0.07143603;0.07613818;0.08040028;0.08352741;0.08511178;0.08501206;0.08341982;0.08054319;0.07690997;0.07339349;0.07047749;0.06832276;0.06667735;0.06546076;0.06471676;0.06399684;0.06327797;0.0622373;0.06123968;0.06050596;0.06013934;0.06038729;0.06136771;0.06321301;0.06606982;0.06983954;0.07465526;0.08013637;0.08608482;0.09197501;0.09766566;0.1029018;0.1078239;0.1130111;0.1198286;0.1293298;0.1420325;0.1578657;0.1764023;0.1962268;0.2153551;0.2324191;0.2460091;0.2558165;0.2622312;0.2665075;0.2690363;0.2702381;0.2705081;0.2695962;0.2680891;0.2662818;0.263796;0.2609972;0.2583445;0.2554473;0.2528459;0.2506788;0.2487683;0.2472281;0.246147;0.2451643;0.2442857;0.2434197;0.2422084;0.2404614;0.2383031;0.2354982;0.2322175;0.2285641;0.2244212;0.2201494;0.215974;0.211844;0.2084729;0.2062399;0.2031409;0.2002855;0.1979788;0.1962289;0.1955217;0.1955815
0.09335391;0.08319644;0.07346249;0.06239912;0.05443922;0.0487047;0.04387559;0.04167537;0.04071219;0.03941751;0.03909433;0.03899466;0.03904977;0.03906253;0.03869987;0.03830465;0.03787084;0.03706844;0.03634961;0.03560112;0.0347117;0.03390458;0.03286077;0.03147504;0.03025558;0.02942971;0.02863047;0.02832362;0.02807501;0.02790042;0.02789972;0.02775274;0.02807718;0.02783112;0.02860167;0.02960875;0.03268873;0.03611254;0.04124991;0.04703763;0.05351132;0.05933281;0.06449842;0.06937402;0.0738833;0.07800025;0.08102516;0.08255979;0.08245771;0.08092542;0.0781277;0.07466274;0.07125373;0.06837956;0.06632081;0.06476137;0.06357036;0.06277763;0.062158;0.06142059;0.06043408;0.05948347;0.05872951;0.05838883;0.05859261;0.05954715;0.06132226;0.06400515;0.0676652;0.07224928;0.07752983;0.08325846;0.08898084;0.09446213;0.09946608;0.104289;0.1092469;0.1158639;0.125083;0.1374566;0.1529524;0.1710739;0.1906451;0.2095848;0.226512;0.2400653;0.2498919;0.2563217;0.2606157;0.2631406;0.2643662;0.2646348;0.263768;0.2622512;0.2604207;0.2579055;0.2551244;0.252444;0.2495443;0.2468934;0.2447199;0.2427868;0.2412244;0.2401229;0.2391329;0.238246;0.2373564;0.2361323;0.2343628;0.2322331;0.2293818;0.2261244;0.2225158;0.2183619;0.2141281;0.2099673;0.2058591;0.2024811;0.2001997;0.1971308;0.1942684;0.191892;0.1900376;0.1891133;0.1889855
0.09333782;0.08302327;0.07330667;0.06182155;0.0540141;0.04823466;0.04316875;0.04093762;0.0401028;0.03887088;0.03856526;0.03837119;0.03847281;0.03855968;0.03812094;0.03766911;0.03717829;0.03631498;0.03563049;0.03499651;0.03395006;0.03307487;0.03205474;0.0306323;0.02933995;0.02842285;0.02770799;0.02734511;0.02702932;0.0269279;0.02690937;0.02671102;0.0270301;0.02677393;0.02757208;0.02861772;0.03184632;0.03535927;0.04066069;0.04664287;0.05331194;0.05928487;0.06471307;0.06969962;0.07434932;0.07856713;0.08168697;0.08331608;0.08316893;0.08161387;0.07873502;0.07518943;0.07167148;0.06878228;0.06665438;0.0650574;0.06385869;0.06308333;0.06240601;0.06170949;0.06064221;0.05964362;0.05895128;0.05858302;0.05882421;0.05981623;0.0616492;0.06444801;0.06817975;0.07289479;0.07834553;0.08422438;0.09006034;0.09565607;0.1008067;0.1056997;0.1107909;0.1175342;0.1269177;0.1394577;0.1551338;0.1734434;0.1931099;0.2121154;0.2290363;0.2425455;0.2523074;0.2587664;0.2630332;0.2655506;0.2667981;0.2670475;0.2661707;0.2646797;0.2628514;0.2603423;0.2575831;0.2549162;0.2520564;0.2494447;0.2472632;0.2453414;0.243807;0.2427355;0.2417392;0.2408681;0.2399686;0.2387417;0.2369904;0.2348754;0.2320489;0.2287675;0.2251846;0.2210209;0.2168028;0.2126367;0.208521;0.2051458;0.2028812;0.1998161;0.1969044;0.1945123;0.1926385;0.191649;0.1915153
0.0926838;0.08251281;0.07267029;0.06150691;0.05373024;0.04807668;0.04304649;0.04080129;0.04006865;0.03882681;0.03838649;0.03827852;0.03836808;0.03836924;0.03797508;0.03762193;0.03713042;0.03620619;0.03561675;0.03490667;0.03392104;0.03317431;0.03217535;0.0307081;0.02946618;0.02854422;0.02780069;0.02744263;0.02723364;0.02708001;0.02704868;0.02681553;0.02721137;0.02694774;0.02770017;0.02878583;0.03196514;0.03543736;0.04066094;0.04656763;0.05316232;0.05902549;0.06430664;0.06922397;0.0737703;0.07795901;0.08105864;0.08259428;0.08249135;0.08095756;0.0781892;0.07472608;0.07125371;0.0684372;0.06632145;0.06473501;0.06359687;0.06282864;0.06215794;0.06144482;0.06043364;0.05948436;0.0587737;0.05843197;0.05865568;0.05965103;0.06146572;0.06420657;0.06790307;0.07258158;0.07789849;0.08366386;0.08938526;0.09488538;0.09994425;0.1047459;0.1097609;0.116362;0.1255307;0.1378557;0.1532401;0.1712013;0.1905378;0.209276;0.2259936;0.2394245;0.2490275;0.2554849;0.2597184;0.2621954;0.263431;0.2636768;0.2627901;0.2613181;0.2595083;0.2570133;0.2542913;0.2516446;0.2487822;0.2461815;0.2440366;0.2421338;0.2406136;0.2395206;0.2385557;0.2376765;0.2368063;0.2355611;0.2338767;0.2317228;0.2289585;0.2257354;0.2221661;0.2180915;0.2139089;0.2098228;0.205774;0.2024686;0.2002641;0.1972719;0.1944196;0.1920625;0.1902188;0.1892602;0.18911
0.09206562;0.08225501;0.0726122;0.06175856;0.05398837;0.04828874;0.04339142;0.04104831;0.04028844;0.03912654;0.0387068;0.03845694;0.03857619;0.03865591;0.03825673;0.03785483;0.03734681;0.03651734;0.0358487;0.03520052;0.03434971;0.0335268;0.03253377;0.03110018;0.02990524;0.02907873;0.02825112;0.02793034;0.02764407;0.02755583;0.02752318;0.02734357;0.02764329;0.02745411;0.02823687;0.02925355;0.03234686;0.0357749;0.04087822;0.04670552;0.05322628;0.05890031;0.0641062;0.06895006;0.07346722;0.07755379;0.08055282;0.08209841;0.08200692;0.08048845;0.07773266;0.07425903;0.07088547;0.06811576;0.06600855;0.06448896;0.06330553;0.06254631;0.06190854;0.06120335;0.06019972;0.05925943;0.05859591;0.05823986;0.05846783;0.05944699;0.06117947;0.06390764;0.06750633;0.07207231;0.07735319;0.08302114;0.08866903;0.09407632;0.09904376;0.1037954;0.1087148;0.1152336;0.1242649;0.1364402;0.1515992;0.1693471;0.1884767;0.2070023;0.2235245;0.2367738;0.246327;0.2526456;0.2568285;0.2593166;0.2604956;0.2607516;0.2599084;0.2584437;0.2566613;0.2542268;0.2515135;0.2489151;0.2460734;0.2434721;0.241372;0.2394769;0.2379525;0.2368921;0.235934;0.2350528;0.2341767;0.2329842;0.2312803;0.2291607;0.2264106;0.2231959;0.2196446;0.2156074;0.2114791;0.2074501;0.2034556;0.2001717;0.1979646;0.1949751;0.1921639;0.1898054;0.1878729;0.1867343;0.1864087
0.09327453;0.08273287;0.07242389;0.06085702;0.05284902;0.04689588;0.04162768;0.0393011;0.03833372;0.03726301;0.03681367;0.0365165;0.03657758;0.03661732;0.03610893;0.03563079;0.0352118;0.03433175;0.03366878;0.03298208;0.03196029;0.03109518;0.03005095;0.0285027;0.02731194;0.02644616;0.02571475;0.02527456;0.02501503;0.0248784;0.02495133;0.02477708;0.0251438;0.02483664;0.02570707;0.02675217;0.03004464;0.03366444;0.03910342;0.04514922;0.05194132;0.05792826;0.06340162;0.06852939;0.07321805;0.07747507;0.08062826;0.08221187;0.08205803;0.08039376;0.07745042;0.07379935;0.07023011;0.06725018;0.06504312;0.06346498;0.06223111;0.0614701;0.06075568;0.0600561;0.05903169;0.05806229;0.05736035;0.05699494;0.0572727;0.05828935;0.06017768;0.0630192;0.06686462;0.07163864;0.07721385;0.08314348;0.08906417;0.09477878;0.09999489;0.1050242;0.1103303;0.1173284;0.1270774;0.140173;0.1563995;0.1752798;0.1954861;0.2149693;0.2322516;0.2461105;0.2560018;0.2626365;0.2670056;0.2695643;0.2708339;0.2710568;0.2701375;0.2685976;0.2667025;0.2640935;0.2612495;0.2584679;0.2554539;0.252715;0.2504171;0.2483366;0.2467137;0.2455013;0.2444037;0.2434425;0.2424827;0.2411468;0.2392934;0.2370738;0.2341656;0.2307404;0.2270216;0.2227316;0.2183665;0.2140967;0.2098604;0.2063479;0.2039531;0.2007946;0.1978524;0.1954049;0.1934888;0.1925382;0.1924187
0.09157606;0.08134916;0.07151964;0.06041189;0.05255951;0.04686063;0.04187858;0.03943318;0.03862102;0.0373208;0.03695532;0.03674062;0.03681774;0.03688816;0.03644894;0.03605095;0.03563824;0.03479299;0.03413294;0.03350779;0.03256393;0.03174382;0.03068933;0.02933333;0.02809429;0.02715751;0.02637885;0.02609331;0.02584992;0.02570978;0.02572139;0.02560088;0.02594418;0.02564966;0.02649933;0.02755989;0.03069964;0.03419328;0.03935657;0.04528996;0.05185333;0.0576535;0.06287012;0.06778466;0.07229992;0.07635999;0.07938472;0.0808878;0.08082031;0.07916442;0.07637965;0.07288006;0.06943484;0.06659316;0.06455152;0.06298514;0.0617901;0.06104026;0.06038606;0.05969742;0.05872983;0.05778928;0.05713933;0.05677742;0.05708108;0.05805857;0.05985184;0.06263436;0.0663105;0.07095653;0.07630446;0.08201165;0.08770172;0.09318455;0.09821845;0.1030621;0.1081591;0.1148701;0.124247;0.1367868;0.1524234;0.1706606;0.1901762;0.2090509;0.2258734;0.2393657;0.2490918;0.2555418;0.2598546;0.2624021;0.2636612;0.2639218;0.2630767;0.2615348;0.2597465;0.25723;0.2544444;0.2517524;0.2488475;0.2461507;0.2439659;0.241989;0.2404013;0.2392431;0.2381901;0.237258;0.2363299;0.2350658;0.2333;0.2311419;0.2283185;0.2250284;0.2213925;0.2172866;0.2130671;0.2089237;0.2048277;0.2014868;0.1992511;0.196212;0.1933699;0.1910601;0.1893205;0.1885857;0.1886015
0.09178044;0.08146225;0.07156844;0.06049906;0.0526669;0.04681012;0.04180452;0.03950999;0.03864654;0.03738991;0.03705051;0.03690157;0.03697157;0.03706088;0.0366803;0.03615134;0.03573612;0.03490242;0.03421245;0.03352141;0.03256029;0.0317471;0.03076137;0.02928421;0.02808581;0.02720677;0.0263822;0.02602199;0.02579826;0.02570631;0.02575075;0.02554842;0.02589049;0.02564174;0.02641188;0.02751764;0.03070711;0.03427855;0.0395553;0.04552009;0.05219552;0.05810475;0.06346804;0.06840847;0.07302603;0.07717631;0.08026727;0.08178617;0.08164132;0.08004907;0.07723712;0.07369509;0.07021625;0.06732692;0.06522852;0.06370458;0.06248945;0.0616967;0.06105151;0.06036839;0.05938336;0.05845092;0.05775759;0.05742768;0.05767469;0.05872548;0.06055975;0.06337825;0.06713788;0.07185003;0.07725038;0.08304146;0.08882935;0.09437331;0.09947605;0.104339;0.1095108;0.1162925;0.1257471;0.1383683;0.1540666;0.1723492;0.191873;0.2107972;0.2275513;0.241017;0.2507433;0.2572504;0.2615269;0.264092;0.2653475;0.265619;0.2647797;0.2633044;0.2615113;0.2589953;0.2562717;0.2536157;0.2506733;0.248045;0.2458457;0.2438723;0.2422703;0.2411032;0.2400902;0.239164;0.2382466;0.237005;0.2352307;0.2330956;0.2302871;0.226984;0.2233807;0.219277;0.215045;0.2109382;0.2068205;0.203493;0.2012611;0.1982269;0.1953398;0.1929461;0.191024;0.1899524;0.1897318
0.09209019;0.08174416;0.07194041;0.06069469;0.05270356;0.04685747;0.04171132;0.0395027;0.03865316;0.03739127;0.03705551;0.03690109;0.03696557;0.036987;0.03655307;0.03611429;0.03560238;0.03474919;0.03415006;0.03352069;0.03255149;0.03170863;0.03069428;0.02925853;0.02800155;0.02713888;0.02638357;0.02604425;0.02576153;0.02561989;0.02559015;0.02543381;0.02579096;0.02562218;0.02638553;0.02741029;0.03060217;0.03409693;0.03937763;0.0453073;0.05202196;0.05789587;0.06325892;0.06824082;0.07285724;0.07708623;0.08014192;0.08166274;0.08152054;0.07989953;0.07706407;0.07349106;0.0699318;0.06704681;0.06493168;0.06338504;0.06217877;0.06139385;0.06073096;0.05998376;0.05900967;0.05806297;0.05738211;0.05703794;0.05727299;0.05828908;0.06011616;0.06299865;0.0667448;0.07148181;0.07692285;0.08279622;0.0885827;0.09420162;0.09938229;0.1042997;0.1095103;0.1163673;0.1259429;0.1387677;0.1546232;0.1731124;0.1928561;0.2119327;0.228844;0.2424354;0.2521639;0.2587073;0.2630098;0.2655836;0.2668972;0.267162;0.2662883;0.2647977;0.2630108;0.2605014;0.257741;0.255081;0.2521626;0.2495389;0.2472981;0.2453373;0.2437666;0.2426617;0.2416347;0.2406781;0.2397963;0.238531;0.2367689;0.2345668;0.2317623;0.2284781;0.2248211;0.2206566;0.2163805;0.2121786;0.2080228;0.2046283;0.2023555;0.199272;0.1963305;0.1939223;0.1920417;0.1910318;0.190865
0.09089912;0.08057194;0.07098826;0.0597992;0.05198783;0.04630137;0.0413516;0.03891738;0.03823512;0.03702581;0.03656793;0.03632459;0.03654018;0.03666513;0.03622849;0.03586387;0.03532492;0.03446428;0.03388019;0.03317535;0.03237095;0.03157822;0.03056068;0.02914548;0.02796056;0.02712708;0.02634324;0.0260297;0.02573889;0.02567867;0.02568744;0.02553289;0.02591919;0.02566806;0.02647368;0.02749185;0.03064137;0.03413552;0.03929982;0.04508028;0.05160699;0.05737217;0.062593;0.06747394;0.07195967;0.07598527;0.07901882;0.08053122;0.08038494;0.07885082;0.07605191;0.0725974;0.06918643;0.06644443;0.06437896;0.06282246;0.06170916;0.06093707;0.06028621;0.05962546;0.0586602;0.05772386;0.05709491;0.05673693;0.05702052;0.05800035;0.05979105;0.06257715;0.06623121;0.07081883;0.07612887;0.08181389;0.08746798;0.09287691;0.09791201;0.1027028;0.1077043;0.1143566;0.1236834;0.136071;0.1516035;0.1695861;0.1889392;0.2075926;0.2241864;0.2375257;0.2471368;0.2535319;0.2577823;0.2603356;0.2615792;0.2618175;0.2609776;0.2594875;0.2577055;0.2552138;0.252477;0.2498182;0.2469403;0.2443114;0.2421203;0.2401435;0.2385869;0.2374498;0.2364113;0.2355161;0.2346016;0.2333461;0.2315836;0.2294304;0.2265994;0.2233534;0.2197498;0.2156526;0.2114689;0.2073348;0.2032809;0.1999241;0.197705;0.1946549;0.1917694;0.1893887;0.1874609;0.1864396;0.1862403
0.09436524;0.08367459;0.07368444;0.06207342;0.05386264;0.0482478;0.04327441;0.04092472;0.04025818;0.03908497;0.03843281;0.03802023;0.03802799;0.03800689;0.03748837;0.03712833;0.03674905;0.03589638;0.03520204;0.03449652;0.03374251;0.03279689;0.03175944;0.03034095;0.02903662;0.02808036;0.02733571;0.02704261;0.02676568;0.0266999;0.02684871;0.02676298;0.0273076;0.02719975;0.02814528;0.02931639;0.03279921;0.03652924;0.04216008;0.04838168;0.05519763;0.06119562;0.06653465;0.07141195;0.07584354;0.07980512;0.08258441;0.08385738;0.08354884;0.08179489;0.07893528;0.07532339;0.07188625;0.06913243;0.06706455;0.06556819;0.0644085;0.06367483;0.0630623;0.06247535;0.0616539;0.06086876;0.06038419;0.06023877;0.06075735;0.06205661;0.06414947;0.06717332;0.07110444;0.07595415;0.08138525;0.08712386;0.09275584;0.09827144;0.1034251;0.108561;0.1142828;0.1219385;0.1326258;0.1466029;0.1636412;0.182883;0.202848;0.2216096;0.238172;0.2514306;0.2610754;0.2676122;0.2720493;0.2747016;0.2760319;0.2762685;0.2753051;0.2737019;0.2716785;0.2690316;0.2660095;0.263093;0.2598736;0.2568936;0.2543728;0.2520637;0.2500825;0.2485185;0.2470838;0.24575;0.2445299;0.2429622;0.2409803;0.2385756;0.2355852;0.2321675;0.2284123;0.2241729;0.2198706;0.2156912;0.2115314;0.2080933;0.2057567;0.2026796;0.1998228;0.1975289;0.1957892;0.1950284;0.1950114
0.09421757;0.08367927;0.07368446;0.06203977;0.05437804;0.04844736;0.04357156;0.0413657;0.04079231;0.0396271;0.03903258;0.03863369;0.03866382;0.03865857;0.03816345;0.037781;0.03734118;0.03646489;0.03574915;0.03521859;0.03431597;0.03341783;0.03233267;0.03085982;0.02960916;0.02867782;0.0279034;0.02760333;0.02734496;0.02725728;0.02739903;0.02736969;0.02784798;0.02768117;0.02858077;0.0299064;0.03324386;0.03708924;0.04267172;0.04892648;0.05577327;0.06187966;0.06721142;0.07215204;0.07661355;0.08052152;0.08343099;0.08468597;0.08438765;0.08267751;0.07973003;0.0761774;0.07274786;0.06993543;0.06792567;0.06640473;0.06522276;0.06454235;0.06395736;0.0633435;0.06247515;0.06171368;0.06120629;0.06112719;0.06162625;0.062908;0.06502765;0.06812003;0.07207773;0.07695766;0.0824622;0.08823456;0.09394147;0.09945554;0.1046609;0.1097917;0.1154766;0.1231437;0.1337953;0.1477656;0.164631;0.183665;0.2033642;0.2219293;0.2382619;0.25131;0.2608387;0.2673058;0.2716601;0.2743382;0.2756648;0.2759645;0.2750748;0.273497;0.2715993;0.2689935;0.2660719;0.2632331;0.2601283;0.2572883;0.2548295;0.2525857;0.2507011;0.2492307;0.2478879;0.2466552;0.2454749;0.2439909;0.2420621;0.2397538;0.2368126;0.2335008;0.2298197;0.2256627;0.2214036;0.2172433;0.213155;0.2097778;0.2075364;0.2044548;0.2016351;0.1993268;0.1975607;0.1967312;0.1966629
0.09205112;0.08201183;0.07240629;0.06114288;0.05338923;0.04795597;0.04310728;0.04092109;0.04018092;0.03899977;0.03857554;0.03812054;0.0379757;0.03791329;0.03739925;0.03704222;0.03669259;0.0358909;0.03527471;0.03469251;0.03383867;0.03303124;0.03202577;0.03062668;0.02942419;0.02852803;0.02784725;0.02756075;0.02736224;0.02729976;0.02739203;0.02732259;0.02780632;0.02768219;0.02857197;0.02972607;0.03299021;0.03652159;0.0417289;0.04761317;0.0541336;0.05976565;0.0648195;0.06949773;0.0737395;0.07748516;0.08012481;0.08134826;0.08103722;0.07943526;0.07662506;0.07323115;0.07001501;0.0673825;0.06545676;0.06398021;0.06286402;0.06217298;0.06162433;0.06110412;0.06029757;0.05957002;0.05907439;0.0589418;0.05944701;0.0606674;0.06266164;0.06558522;0.06935814;0.0739717;0.07918042;0.08465923;0.09008511;0.09535343;0.1002925;0.1052116;0.1106233;0.1180135;0.1282301;0.141698;0.158021;0.1764953;0.1957102;0.2138575;0.2298467;0.2427044;0.2521174;0.2584816;0.2628154;0.2654415;0.2667867;0.2670551;0.2661912;0.264636;0.2627653;0.2601945;0.2573201;0.2545254;0.2514285;0.2486132;0.2461804;0.2439623;0.2420712;0.2406211;0.2392819;0.238048;0.2368751;0.2354023;0.2334819;0.2312092;0.2283179;0.2250475;0.2214466;0.2173619;0.213217;0.2091299;0.2051538;0.201867;0.1996778;0.1966891;0.1939072;0.1916645;0.1899348;0.1891233;0.1890489
0.09359315;0.08335523;0.07352011;0.06232165;0.05451678;0.04878297;0.0439553;0.04176331;0.04098674;0.03971699;0.03914182;0.03867248;0.03861146;0.03860631;0.03813923;0.03765807;0.03716138;0.03634286;0.03562841;0.03497785;0.03412626;0.03326544;0.03216249;0.03080591;0.02954762;0.02861509;0.02786478;0.02759187;0.02730629;0.02724082;0.02728747;0.02718651;0.02771189;0.02755231;0.02848615;0.02959999;0.03295532;0.03660565;0.04204261;0.048152;0.05481945;0.06063233;0.06582566;0.07063902;0.07493726;0.07880387;0.08152561;0.08282395;0.08250977;0.08078064;0.07792125;0.07442875;0.07108334;0.06838519;0.06639857;0.0648941;0.06372696;0.06298691;0.06241707;0.06182447;0.06099812;0.06023071;0.05976225;0.05961143;0.06014392;0.0613296;0.06339552;0.06638955;0.07027055;0.07501112;0.08036933;0.08599655;0.09153455;0.09693567;0.1020193;0.1070265;0.1125928;0.120097;0.1305109;0.1442448;0.1608743;0.1796242;0.1990435;0.217424;0.2335079;0.2464202;0.2558556;0.2622419;0.2666048;0.2692598;0.2705505;0.2708181;0.2699786;0.2684131;0.2664733;0.2638422;0.2609815;0.2581745;0.2550157;0.252203;0.2497436;0.2475161;0.2456165;0.2441654;0.2428018;0.2415566;0.2403957;0.2389022;0.2369551;0.2346533;0.2317483;0.2284518;0.2247963;0.2207158;0.2165083;0.2124236;0.2083948;0.2050413;0.2028523;0.1998452;0.1970234;0.1947778;0.1930032;0.1920985;0.1919925
0.09200081;0.08176415;0.07198215;0.0610055;0.05328667;0.04775935;0.04283668;0.0408912;0.04019242;0.03894478;0.03840604;0.03796535;0.03792464;0.03786915;0.03728183;0.03698272;0.03667312;0.03582842;0.03522022;0.03454071;0.03376264;0.03294541;0.03195013;0.03052723;0.02931441;0.02850069;0.0277882;0.02754203;0.02734311;0.02728079;0.02737806;0.0273496;0.02783175;0.02766471;0.02859635;0.02974848;0.03297212;0.03666428;0.04198334;0.04790528;0.05442119;0.06008441;0.0652475;0.06988801;0.07411933;0.07789417;0.08059597;0.08180892;0.08151668;0.07987203;0.07710898;0.07369895;0.0703798;0.06778803;0.06585155;0.06438777;0.06328591;0.06258239;0.06199767;0.06149046;0.06067244;0.05995687;0.05949679;0.05935061;0.05982583;0.0610792;0.06306864;0.06598372;0.06975399;0.07436479;0.07955281;0.08503328;0.09041733;0.09568257;0.1006009;0.1054969;0.1109284;0.1182232;0.1283874;0.1417979;0.1580226;0.176455;0.1955592;0.213571;0.2294665;0.2422725;0.2515742;0.2579404;0.2622341;0.2648427;0.2661428;0.2664378;0.2655257;0.2640271;0.26215;0.2595732;0.2566722;0.2538731;0.2507895;0.2479545;0.2455466;0.2432899;0.2414242;0.2399339;0.2385719;0.2373169;0.236138;0.2346589;0.2327325;0.2304555;0.2275755;0.2243017;0.220716;0.2166741;0.2125441;0.2084935;0.2045279;0.2012606;0.1990666;0.1961052;0.1933676;0.1911472;0.1894496;0.1886529;0.1885926
0.09472823;0.08422695;0.07421471;0.06300247;0.05487024;0.04884452;0.04388747;0.04151671;0.04066449;0.03943085;0.03881625;0.03830716;0.0382408;0.03817665;0.03761088;0.03722638;0.03679828;0.03585345;0.03516033;0.03451068;0.03359238;0.0327552;0.03163228;0.03017604;0.0288987;0.02800987;0.02719643;0.02682284;0.02662132;0.02656031;0.02670472;0.02652991;0.02700077;0.026814;0.02777815;0.02891247;0.03231329;0.03601466;0.04149755;0.04763288;0.05436641;0.06025327;0.06555693;0.07035934;0.07481115;0.07871914;0.08154234;0.08280612;0.08251815;0.08079633;0.07792033;0.0743604;0.07091196;0.06814789;0.06610709;0.06459;0.06340263;0.06263544;0.06204139;0.06145317;0.06060397;0.05980081;0.05930536;0.05913381;0.05963606;0.06085935;0.06289802;0.06592471;0.06980301;0.07460337;0.08000918;0.08570594;0.09131541;0.0968205;0.1019678;0.107015;0.1126288;0.1201912;0.1307161;0.14456;0.1614359;0.1805316;0.2003555;0.2191124;0.2355958;0.2487942;0.2584101;0.2649223;0.2692784;0.2719144;0.2732161;0.2734764;0.2725406;0.2708874;0.2689597;0.2662787;0.2632709;0.2603894;0.2572135;0.2542695;0.2517813;0.2494436;0.2475248;0.2460242;0.2446296;0.243338;0.2421366;0.2406047;0.2386153;0.2362633;0.2332801;0.2298989;0.2261501;0.221965;0.217701;0.2135349;0.2093816;0.2059647;0.2036776;0.2006104;0.1977847;0.1954755;0.1937303;0.1929751;0.1929697
0.09632038;0.08594576;0.07612838;0.06477121;0.05686226;0.05114276;0.04603046;0.04372484;0.0430088;0.04167666;0.04099898;0.04056761;0.04048476;0.04041088;0.03990572;0.03945813;0.03897991;0.03814137;0.03743348;0.03670006;0.03587586;0.03497922;0.03390591;0.03242734;0.03115213;0.03028414;0.02947149;0.02914791;0.02888698;0.02874464;0.02883446;0.02875762;0.029231;0.02902212;0.02997528;0.03107443;0.03441919;0.03809152;0.04358581;0.04966312;0.05641232;0.06227615;0.06755718;0.07225756;0.07668054;0.08055734;0.08334599;0.08459981;0.08430004;0.0826247;0.07975458;0.07622324;0.07286726;0.07006961;0.06807915;0.06656142;0.06539812;0.06465118;0.06402998;0.06348103;0.06257559;0.06183343;0.06130689;0.06117001;0.06164834;0.06287271;0.06493474;0.06789086;0.07176489;0.07650733;0.08188529;0.0875146;0.09306073;0.09844701;0.1035277;0.1085108;0.11403;0.1214886;0.1317813;0.1454327;0.162002;0.1807486;0.2002907;0.2187518;0.2349742;0.2480262;0.2575016;0.2639097;0.2682948;0.2708592;0.2721767;0.2724347;0.2715239;0.2699146;0.268009;0.2653689;0.2624021;0.2595554;0.2564022;0.2535465;0.2510881;0.2487972;0.2469046;0.2454122;0.2440302;0.2427782;0.2415822;0.240075;0.2381089;0.2357971;0.2328641;0.2294949;0.2258421;0.2216902;0.2174734;0.2133484;0.2092796;0.2058957;0.2036315;0.2006294;0.1978043;0.195536;0.1938492;0.1931369;0.193153
0.09647114;0.08593412;0.07597005;0.06462898;0.05661341;0.05077338;0.04564762;0.04337948;0.0425874;0.0412227;0.04057818;0.0400988;0.04004852;0.04003697;0.03950663;0.03902529;0.03857174;0.03771788;0.03696866;0.03625952;0.03542875;0.03449402;0.03344512;0.03196539;0.03063883;0.02974875;0.02891493;0.02858924;0.02848291;0.02832916;0.02837967;0.02823766;0.02873017;0.02853117;0.02941509;0.03062375;0.03397396;0.03769249;0.04323025;0.04942572;0.05621643;0.06215952;0.06743801;0.07236081;0.07682426;0.08077023;0.0835914;0.0848761;0.08457039;0.08285706;0.07997871;0.07638291;0.07292749;0.07018509;0.06813551;0.06658863;0.06545081;0.06470228;0.06410472;0.06352938;0.06266873;0.06185615;0.06135107;0.06123513;0.06171201;0.06297709;0.06501727;0.06807496;0.07198521;0.07682355;0.08227762;0.08802171;0.09366382;0.09912699;0.1042815;0.1093577;0.1149548;0.1225192;0.1330101;0.1468182;0.1635351;0.1825;0.202163;0.2207007;0.2369276;0.2500205;0.2594965;0.2659374;0.2703276;0.2729518;0.2742839;0.2745662;0.2736973;0.2721392;0.2702808;0.267671;0.2648096;0.2620525;0.2589363;0.2561194;0.253657;0.2514409;0.2495377;0.2480783;0.2467357;0.2454981;0.2443396;0.2428587;0.2409522;0.2386174;0.2357156;0.2324078;0.2287605;0.2246251;0.2204158;0.216274;0.2122251;0.2088694;0.2066576;0.2036275;0.2008162;0.1985435;0.1968353;0.1960994;0.196101
0.09473638;0.08423387;0.0743724;0.06313618;0.05524948;0.04924259;0.04424665;0.04193873;0.04128168;0.03991098;0.03937473;0.03893648;0.03887749;0.03882851;0.03828624;0.03788064;0.03738039;0.0365228;0.03582671;0.03511341;0.03421203;0.03331371;0.03222783;0.03078386;0.02958167;0.02866006;0.02783946;0.02748335;0.02723758;0.02710981;0.02721357;0.02713687;0.02754869;0.02738428;0.02829292;0.02945458;0.03283874;0.03653362;0.04208747;0.04817822;0.05497911;0.06097457;0.06627041;0.07113645;0.07557777;0.07954475;0.08235372;0.08363283;0.08329587;0.08160904;0.07877253;0.07518716;0.0717399;0.06900648;0.06699501;0.06545395;0.06434685;0.06357834;0.06298485;0.06241791;0.0615653;0.06078183;0.06028271;0.06012905;0.0606515;0.06183355;0.0639585;0.06700859;0.07089269;0.07572214;0.08118095;0.08683308;0.09249773;0.097943;0.1030651;0.1081078;0.1136842;0.1211397;0.1315642;0.1451684;0.1617504;0.1804468;0.1998691;0.2181876;0.2342627;0.2471922;0.2566225;0.2630088;0.2672991;0.2699391;0.271234;0.2715264;0.270682;0.2691309;0.2672629;0.2647198;0.2619042;0.2591062;0.2560737;0.2532422;0.2508479;0.248663;0.2468074;0.2453855;0.2440685;0.2428513;0.2417358;0.2402728;0.2383521;0.2360844;0.233197;0.2298985;0.2262891;0.2222132;0.2179892;0.2139021;0.2098629;0.2065532;0.204357;0.201317;0.1985161;0.1962155;0.1944602;0.1936338;0.1935854
0.09564371;0.08526453;0.07548725;0.06432237;0.0563262;0.05060337;0.0456444;0.04326567;0.04254614;0.04123267;0.04057393;0.0401618;0.04004109;0.03997626;0.03955841;0.03911419;0.03865015;0.03781633;0.03717459;0.0365467;0.03565401;0.03479245;0.0337791;0.03232202;0.03105929;0.03011302;0.02933997;0.02899428;0.0287986;0.02868545;0.02873648;0.02865782;0.0291018;0.02897555;0.02988917;0.0310353;0.03433679;0.03801187;0.04354636;0.04954723;0.05629613;0.06216231;0.06740417;0.07221755;0.07660861;0.08048503;0.08327277;0.08456481;0.08429625;0.08259504;0.07969096;0.07622035;0.07286561;0.07012632;0.0681346;0.06664317;0.06550378;0.06480452;0.06420439;0.06362632;0.0627882;0.06203878;0.06148364;0.06143056;0.06188208;0.06310152;0.06516042;0.06819388;0.07202303;0.07680276;0.08215951;0.08776804;0.09333294;0.09873816;0.1037979;0.1087606;0.1142607;0.1216435;0.1318796;0.1453303;0.1616669;0.1801244;0.1992712;0.2173088;0.2331859;0.2458958;0.2551419;0.2614252;0.2656599;0.2681977;0.2695172;0.2697982;0.2689502;0.2674404;0.2655912;0.2630841;0.2602682;0.2575384;0.2545246;0.25178;0.2494417;0.2472615;0.2454152;0.2440285;0.2427164;0.241516;0.2403981;0.238956;0.2370667;0.234816;0.2319617;0.2287014;0.225169;0.2211599;0.2170406;0.2130212;0.2090486;0.2057841;0.2035872;0.2006411;0.1978593;0.1956051;0.1938665;0.1930296;0.1929534
0.09221545;0.08211281;0.07256481;0.06147922;0.05355616;0.04795482;0.04299812;0.04075299;0.03996988;0.03886408;0.03820694;0.03775864;0.0377605;0.03771344;0.03718152;0.03677398;0.03632551;0.03547234;0.03481571;0.03423636;0.03331619;0.03253737;0.03152342;0.03009614;0.02891965;0.02805648;0.0273298;0.02697064;0.02680138;0.02671524;0.02678199;0.02663943;0.02706624;0.02691856;0.02779049;0.02883616;0.03204029;0.03551085;0.04065587;0.04645678;0.05289607;0.05865198;0.06360625;0.06817468;0.07236634;0.07616331;0.07892119;0.08028538;0.08005618;0.07849248;0.07578301;0.07239242;0.06909593;0.06642521;0.06446737;0.06294767;0.06183099;0.06103282;0.06043113;0.05984141;0.05894421;0.0581414;0.05759988;0.05741064;0.0578252;0.05898113;0.06092678;0.06382235;0.06750934;0.07211806;0.07730415;0.08281804;0.08826384;0.09350605;0.0984031;0.1032395;0.1084866;0.1155906;0.1255552;0.1386932;0.1548274;0.1732372;0.1925504;0.2109064;0.2270634;0.240069;0.2495654;0.2559269;0.2601573;0.2627215;0.2639771;0.2641597;0.2632161;0.2615603;0.2595737;0.2569042;0.253962;0.2511189;0.2480433;0.2452072;0.2428285;0.2406671;0.2388965;0.2375321;0.2362798;0.2351585;0.2340517;0.23262;0.2307114;0.2284803;0.2256124;0.2223419;0.21878;0.2147194;0.2106125;0.2065765;0.2025777;0.1992954;0.1971178;0.1941643;0.1914247;0.1891882;0.1874881;0.1867533;0.1867636
0.09061906;0.08024324;0.07066604;0.05954451;0.05202822;0.04632116;0.04136118;0.03917733;0.03856634;0.03727433;0.03676688;0.03640612;0.036454;0.03650487;0.03593089;0.03552534;0.03514025;0.03423594;0.03363369;0.03297813;0.03206957;0.03125211;0.03035371;0.0289143;0.02770667;0.02688531;0.02613036;0.02589999;0.02562569;0.02555104;0.02566191;0.0255583;0.02601759;0.02581489;0.02663379;0.0278082;0.03099174;0.0345191;0.03979328;0.04575386;0.0523174;0.05811668;0.06322666;0.06783858;0.07214312;0.07598063;0.07881619;0.08014899;0.07998107;0.07842678;0.07578091;0.07233546;0.06900904;0.06631146;0.06435662;0.06286666;0.06170074;0.06095672;0.06033233;0.05977;0.05887378;0.05805152;0.05755586;0.0573461;0.05780393;0.05896061;0.0609278;0.06386413;0.0676093;0.07227475;0.07751759;0.08306876;0.08853304;0.09379401;0.09872741;0.1035242;0.1087715;0.1158584;0.1257105;0.1387126;0.1546009;0.1727085;0.1915927;0.2095115;0.2253299;0.2379991;0.2472236;0.2534249;0.2576151;0.2601039;0.2613312;0.2615725;0.2606671;0.2590513;0.2571431;0.2545463;0.2516975;0.248934;0.2459466;0.2432235;0.2409304;0.2388517;0.2371459;0.235854;0.234642;0.2335443;0.2325025;0.2311251;0.2292965;0.2271151;0.2243296;0.2211521;0.2176555;0.2137302;0.2097092;0.2057583;0.2018469;0.1986252;0.1965125;0.1936483;0.1909408;0.1887453;0.187074;0.186359;0.1863427
0.09122195;0.08116387;0.07171655;0.06069978;0.05299986;0.04707596;0.04220287;0.03990161;0.0392442;0.03805586;0.03735466;0.03695377;0.03693747;0.03691768;0.03643554;0.03604755;0.03566379;0.03480136;0.03419928;0.03359947;0.03274546;0.03193675;0.03094142;0.02955407;0.02845119;0.02758188;0.02686862;0.02659609;0.02641369;0.02637169;0.02642753;0.0263777;0.0268071;0.02663214;0.02755994;0.0286496;0.03181894;0.0352935;0.0404416;0.04624241;0.05272419;0.05844476;0.06343775;0.06804454;0.07224055;0.07607072;0.07887287;0.0802034;0.08003452;0.0784816;0.07579787;0.0724453;0.06917479;0.06650483;0.06457032;0.06307882;0.06195921;0.06125892;0.06067697;0.0600565;0.05920231;0.05844003;0.05795299;0.0577789;0.0582061;0.05937639;0.06133094;0.06420401;0.06794303;0.07254545;0.07772888;0.08321746;0.08864488;0.09392725;0.09882125;0.1036398;0.1089244;0.116014;0.1258863;0.1389947;0.1549506;0.173173;0.1922667;0.2103725;0.2262919;0.2391078;0.248445;0.2547488;0.2589522;0.2615303;0.2627969;0.2630525;0.2621775;0.2605689;0.2587222;0.2561285;0.2533043;0.2505835;0.2475792;0.244892;0.2425712;0.2404993;0.2387841;0.2375013;0.2362992;0.2352237;0.2341491;0.2328133;0.2309615;0.2287754;0.2259957;0.2227941;0.219302;0.215334;0.2113039;0.2073398;0.2033875;0.2001781;0.198097;0.1951821;0.1924281;0.1902021;0.1884549;0.187562;0.1874464
0.08972012;0.0798157;0.07029521;0.0592195;0.05170041;0.0463201;0.04158943;0.03932145;0.03860035;0.03726272;0.03676016;0.0364676;0.0364527;0.03645046;0.03600955;0.0355518;0.03508492;0.03436399;0.03380407;0.03313167;0.03224601;0.03146039;0.03048661;0.02907466;0.02789081;0.02706592;0.02640056;0.0260892;0.02587215;0.02581499;0.02587799;0.02576671;0.02620755;0.02592885;0.02687496;0.02798727;0.03113003;0.03453793;0.03977552;0.04554553;0.05199808;0.05765202;0.06261805;0.06716569;0.07126613;0.07504055;0.07778744;0.07914376;0.07896981;0.07747139;0.07482266;0.07150036;0.06828949;0.06564981;0.06371486;0.06224764;0.06112469;0.06042252;0.0598127;0.0592421;0.05838591;0.05759924;0.05706873;0.05691807;0.05736447;0.05848949;0.06044051;0.06328537;0.06695811;0.07153205;0.07664368;0.08209969;0.08739603;0.09254652;0.09735347;0.1020839;0.1072161;0.1141391;0.1237831;0.1365163;0.1521137;0.1698996;0.1885294;0.2062027;0.2217957;0.2343466;0.2434836;0.2496683;0.2538566;0.256336;0.2575973;0.2578423;0.2569798;0.2554315;0.2535479;0.2510291;0.2482262;0.2455431;0.2426117;0.239935;0.2376946;0.2356213;0.2339544;0.232704;0.2315258;0.2304501;0.2294216;0.2280741;0.22628;0.2241226;0.2213924;0.2182887;0.2148408;0.2109685;0.2070063;0.2031266;0.1992767;0.1961469;0.1941348;0.1912994;0.1886117;0.1864202;0.1846986;0.1837668;0.1836374
0.08921156;0.07931841;0.06997646;0.05907278;0.0514447;0.04605752;0.04132016;0.03917877;0.03848497;0.03720503;0.03682631;0.03640469;0.03636319;0.03637059;0.03584764;0.03550228;0.03512804;0.0344252;0.03377244;0.03309218;0.03232209;0.03156787;0.03066313;0.02916463;0.02808274;0.0272231;0.02654632;0.02631734;0.02606644;0.02597496;0.02607965;0.02599124;0.02635438;0.0261931;0.02712665;0.02814549;0.03129242;0.03473645;0.03989317;0.04562424;0.05203967;0.05758004;0.06250694;0.06705309;0.07123064;0.07490325;0.07761522;0.07893937;0.07874031;0.07730413;0.07466419;0.07140534;0.06822811;0.06564894;0.06371459;0.06227582;0.06122895;0.06049849;0.05991142;0.05933833;0.0585268;0.05775851;0.05724505;0.05711159;0.05755371;0.05867488;0.06064239;0.06344436;0.06715404;0.07162854;0.07674021;0.08208039;0.08735763;0.09248893;0.09723907;0.1019322;0.1070266;0.1138906;0.1233942;0.1359582;0.1512746;0.1688076;0.1870403;0.2044286;0.2197077;0.2320622;0.2410664;0.2471313;0.2511798;0.2536771;0.2549377;0.2551876;0.2543458;0.2528993;0.2510728;0.2486267;0.2458981;0.2432944;0.2404305;0.2378132;0.2356272;0.2336185;0.2319485;0.2306965;0.2295667;0.2285147;0.2275063;0.2262013;0.2244308;0.2223436;0.2196486;0.2165748;0.2132124;0.2094349;0.2055442;0.2017612;0.1979699;0.194934;0.1929754;0.190179;0.1875482;0.1853715;0.1836345;0.1826956;0.1825135
0.0904027;0.08017239;0.0702538;0.05876062;0.05050328;0.04480805;0.03970808;0.03744269;0.03677842;0.03576737;0.03533514;0.03505047;0.03508595;0.03509797;0.03464509;0.03429179;0.03384574;0.03285354;0.03223213;0.03152864;0.03060067;0.02980897;0.0287211;0.02732247;0.02609399;0.02514563;0.02441949;0.02411029;0.02386533;0.02380815;0.02392747;0.0238092;0.02437261;0.02417537;0.02507556;0.0262641;0.02961017;0.0333142;0.03891082;0.04510641;0.05198105;0.05793676;0.06323406;0.0679945;0.07247508;0.07645345;0.07941581;0.08088064;0.08075576;0.07918976;0.07640123;0.07292424;0.06946307;0.06677444;0.06475142;0.06319159;0.0620429;0.06128845;0.06065462;0.05998512;0.05913186;0.05834344;0.05777723;0.05758059;0.0580333;0.05924705;0.06127441;0.06426417;0.06814488;0.07296079;0.07835459;0.08405939;0.08969247;0.09512243;0.1002403;0.1051988;0.1106381;0.1178927;0.1280394;0.1415253;0.1580155;0.176837;0.1966769;0.2154833;0.2320991;0.2454729;0.2551565;0.2617092;0.266054;0.2686866;0.2699409;0.2701412;0.2691912;0.2674708;0.2654252;0.2627054;0.2597035;0.2568308;0.2536866;0.2508881;0.2485171;0.2463797;0.2446527;0.2433619;0.2421605;0.2410485;0.2400136;0.2386064;0.2367505;0.2344851;0.2316024;0.2282944;0.2246431;0.22054;0.2163312;0.2121604;0.2080812;0.2047467;0.2025567;0.1995154;0.1966824;0.1943453;0.1925606;0.1916851;0.1915923
0.09146403;0.08107853;0.07130298;0.05988086;0.05195164;0.04609133;0.04102725;0.03873877;0.03802922;0.03687172;0.03644963;0.03616555;0.03620812;0.03621819;0.03575846;0.03541003;0.03496931;0.03402774;0.033298;0.03260172;0.03174561;0.03092944;0.02987306;0.02845904;0.02718128;0.02629436;0.0255078;0.02520973;0.02505546;0.02497897;0.02502313;0.02490153;0.02538871;0.02524831;0.02616896;0.0273559;0.03063499;0.03428457;0.03971438;0.04590113;0.05273058;0.0586773;0.06396638;0.06871457;0.07318766;0.07715116;0.08010507;0.08155268;0.08141281;0.0798913;0.07711178;0.07361909;0.07019417;0.06739814;0.0654076;0.06386007;0.06269325;0.06194681;0.06129655;0.06063255;0.05973737;0.05891421;0.05839665;0.05818624;0.05862537;0.05982808;0.0618405;0.06480565;0.06871722;0.07354537;0.07891653;0.08461482;0.09022916;0.09568002;0.1007559;0.1056961;0.1110968;0.1183183;0.1284114;0.1417679;0.1580772;0.1766869;0.1961705;0.214675;0.2309765;0.2440624;0.2535594;0.2599637;0.2642199;0.2668307;0.2680533;0.2682647;0.2673359;0.2656634;0.2636985;0.2609968;0.2580951;0.2552523;0.2522181;0.2494604;0.2470982;0.2450019;0.2432809;0.2420061;0.2408143;0.2397465;0.2386755;0.237323;0.2354805;0.2332475;0.2303995;0.2271875;0.2235909;0.2195345;0.215417;0.2113242;0.2073124;0.2040445;0.2018391;0.1988484;0.1960442;0.1937254;0.1918884;0.1909035;0.1907069
0.09283742;0.08224802;0.0722559;0.06078457;0.05253622;0.04660614;0.04150828;0.03933004;0.03852488;0.03730334;0.0368708;0.03656721;0.03664786;0.03672266;0.03630806;0.03588973;0.03535924;0.03444846;0.03375833;0.03304344;0.03214554;0.03128485;0.0302358;0.02873759;0.02755145;0.02667658;0.02596729;0.02562999;0.02541865;0.02534889;0.02546043;0.0253288;0.02584046;0.02568708;0.02659614;0.0277718;0.0311618;0.03480176;0.04034086;0.04655989;0.05341869;0.05947101;0.06478774;0.06963451;0.0741327;0.0781548;0.08105175;0.08258243;0.08244994;0.08084355;0.07805856;0.07453719;0.07108083;0.06831557;0.06621087;0.06472202;0.06355686;0.06278632;0.06213911;0.0614986;0.06055569;0.05975604;0.05921621;0.05904955;0.05949056;0.06067573;0.06271439;0.06572634;0.06960602;0.07448535;0.07992948;0.08566149;0.09136995;0.09687719;0.1019851;0.1069964;0.1123981;0.119747;0.1299452;0.1434453;0.1599718;0.1788081;0.1985557;0.2172353;0.2337354;0.2469622;0.2565076;0.263031;0.2673408;0.269953;0.2712039;0.2714755;0.2704961;0.2688332;0.2668535;0.2641801;0.2612247;0.2584005;0.2553316;0.2525547;0.250225;0.2480923;0.2463716;0.2450874;0.2438791;0.2427912;0.2417376;0.2403551;0.2384778;0.236239;0.233378;0.2300915;0.2264898;0.2223975;0.2182096;0.2140969;0.2100208;0.2066627;0.2044328;0.2014234;0.1985652;0.1961919;0.1943286;0.1932962;0.1930486
0.09349626;0.08304853;0.07326086;0.06169841;0.05349169;0.04766236;0.04254043;0.04027247;0.0395936;0.03850399;0.03802875;0.03779807;0.03795636;0.03802737;0.03753936;0.03710738;0.03661941;0.03569067;0.03503245;0.03442731;0.03344822;0.03260063;0.0314279;0.029985;0.02871261;0.02784557;0.0270844;0.0267135;0.0265164;0.02643432;0.02647498;0.02638357;0.02681952;0.02663767;0.02760912;0.0287914;0.03219536;0.03601827;0.04165425;0.04797586;0.05500967;0.06115899;0.06656883;0.07143082;0.07597123;0.08010823;0.08308021;0.08456284;0.08444383;0.08288185;0.08004025;0.07647289;0.07304844;0.07021648;0.06810772;0.06658848;0.06542426;0.06465124;0.06402986;0.06340636;0.06243138;0.06160397;0.06108525;0.06086623;0.06130899;0.06254008;0.06461031;0.0677145;0.07166866;0.07656851;0.08208186;0.08788522;0.09362512;0.09916601;0.10432;0.1093379;0.1148189;0.1221288;0.1323345;0.1457575;0.1621908;0.1808999;0.200424;0.218955;0.2352731;0.2483738;0.2578495;0.2642723;0.2685458;0.2711476;0.2724117;0.2726292;0.2716922;0.2700781;0.2680887;0.2654689;0.26258;0.2598277;0.2567846;0.2540688;0.2517344;0.2496829;0.2480142;0.246713;0.2455611;0.2444894;0.2435166;0.2421214;0.2402916;0.2381087;0.2352902;0.2320828;0.22853;0.2244748;0.2203599;0.2162949;0.212269;0.2090009;0.2068536;0.2038902;0.201086;0.1987832;0.1969877;0.1960825;0.1959357
0.09236351;0.08219906;0.07215247;0.06064156;0.05276844;0.04701598;0.0419133;0.03965348;0.03909893;0.03796899;0.037574;0.03734449;0.03741813;0.03746543;0.03700487;0.03659314;0.03615357;0.03531393;0.03458165;0.03383387;0.03295356;0.03215991;0.0311087;0.0297009;0.02853722;0.02763782;0.02681279;0.02649447;0.02632222;0.02628238;0.02632881;0.02624247;0.02668362;0.02650398;0.02743295;0.02857931;0.0319071;0.03561686;0.04114386;0.04728045;0.05416975;0.06010109;0.06536906;0.07020971;0.07466375;0.07860409;0.08156077;0.08304477;0.08290106;0.08131005;0.07854387;0.07508769;0.07170873;0.06897718;0.06699482;0.06545353;0.06432087;0.06360389;0.06295982;0.06231932;0.06139963;0.06059812;0.06006066;0.05989086;0.06031325;0.06152206;0.06350647;0.06650531;0.0703766;0.07515209;0.08055547;0.08619139;0.09178008;0.09720688;0.1022363;0.1071478;0.1124735;0.1196665;0.1296488;0.1428563;0.1590351;0.1774595;0.1967905;0.2151267;0.2312753;0.2442461;0.2536088;0.2600124;0.2642398;0.2667907;0.2680394;0.2682691;0.2673663;0.2657922;0.263863;0.2612559;0.2583659;0.2555977;0.2526285;0.2499038;0.2476223;0.2455855;0.2439205;0.2426715;0.2415013;0.2404599;0.2394318;0.2380984;0.2362804;0.2340835;0.2312424;0.2280651;0.2245062;0.2204931;0.2163674;0.2123234;0.2083076;0.2050086;0.202829;0.1998381;0.1970425;0.1946998;0.1928661;0.1918503;0.1916423
0.09650819;0.08575325;0.07597759;0.06414922;0.05614904;0.05005393;0.04485194;0.04252319;0.04152151;0.04013229;0.03977072;0.03959679;0.03964028;0.03967929;0.039238;0.03870376;0.03820147;0.03739084;0.03668554;0.03590526;0.03505943;0.03413452;0.03297539;0.03151508;0.03023311;0.029205;0.02839949;0.02796495;0.02767963;0.02745775;0.02751145;0.02725821;0.02762806;0.02736294;0.02812879;0.029228;0.03260949;0.03626842;0.04174877;0.04776971;0.05468136;0.06082702;0.06637985;0.07157971;0.07636786;0.08079475;0.08399943;0.08557405;0.0854327;0.08374818;0.08073638;0.07685266;0.07309259;0.06998097;0.0677425;0.06602699;0.06474886;0.06391657;0.063237;0.0624631;0.06144007;0.06040278;0.05964338;0.05923526;0.05942047;0.06034835;0.0622017;0.0650302;0.06881343;0.07360977;0.07915794;0.08521868;0.09126893;0.09709574;0.1024736;0.1075275;0.1128353;0.1197739;0.1293713;0.1422048;0.1582467;0.1771183;0.1974053;0.217106;0.2346119;0.2486613;0.2587629;0.265425;0.2698363;0.2724897;0.2738143;0.2741231;0.273315;0.2718821;0.2701511;0.2677249;0.2649724;0.2623154;0.259308;0.2566051;0.2543137;0.2522687;0.2506332;0.2494381;0.2483443;0.2473859;0.246457;0.2451642;0.2433907;0.2411601;0.2382177;0.2348033;0.231032;0.2267289;0.2223214;0.2179836;0.2137522;0.2102656;0.2079279;0.2047697;0.2018328;0.1995146;0.1977896;0.1971344;0.1972892
0.09383803;0.08361514;0.07384568;0.06246118;0.05458729;0.04878156;0.04371715;0.04129359;0.04052481;0.0391794;0.03881062;0.03856961;0.0386258;0.03867007;0.0381899;0.03777359;0.0373045;0.03652869;0.03588232;0.0351672;0.03426085;0.03334378;0.03228858;0.03087531;0.02958564;0.02863119;0.02786577;0.02746652;0.0271255;0.02695313;0.02695419;0.02676063;0.02714175;0.02685243;0.02759049;0.02870363;0.0319392;0.03557032;0.04086664;0.04682077;0.05347914;0.059446;0.06490161;0.07001051;0.074641;0.07894562;0.08207668;0.0836241;0.08349679;0.08189383;0.07890814;0.0752096;0.07156378;0.06856575;0.06640117;0.06470185;0.06346071;0.06269057;0.06199397;0.0612817;0.06022241;0.05924403;0.05853399;0.05809335;0.05830436;0.05923592;0.06102327;0.06377088;0.06743137;0.07216328;0.07762063;0.0834909;0.08937231;0.09504818;0.1002625;0.1051376;0.1102909;0.1169804;0.1262925;0.1387063;0.1542526;0.1725195;0.1921788;0.2112428;0.2282801;0.2419352;0.2517301;0.2582543;0.2625843;0.2651593;0.2664403;0.2667158;0.265985;0.2645791;0.2629542;0.2605234;0.2578786;0.2552726;0.2524018;0.2497557;0.2475265;0.2455236;0.2438992;0.2427603;0.2417199;0.2407918;0.2398783;0.2386618;0.2368966;0.2347077;0.2318806;0.2285356;0.2248811;0.2207155;0.2164403;0.2122557;0.2081266;0.2047476;0.2024904;0.199436;0.1965854;0.1942654;0.1925243;0.1917829;0.1918103
0.0950241;0.08461495;0.074489;0.06277369;0.05487159;0.048951;0.04375812;0.04122972;0.04025494;0.03885777;0.03842805;0.03820958;0.03822892;0.0381621;0.03764652;0.03726104;0.03678945;0.03594624;0.03524639;0.03447481;0.03356789;0.03273799;0.03166156;0.03016173;0.02893049;0.02798776;0.02706025;0.02671413;0.02644823;0.0262745;0.02621786;0.02605489;0.02646212;0.02619086;0.02690009;0.02799829;0.03129263;0.03485305;0.04016057;0.04615907;0.05286271;0.05887525;0.06433856;0.06945384;0.07412797;0.07844064;0.08161174;0.08324392;0.08309679;0.0814392;0.07846789;0.07463602;0.07094409;0.06790964;0.0656535;0.06394738;0.06267494;0.06185123;0.06115148;0.06039119;0.05935717;0.05833319;0.05758215;0.05716711;0.05733654;0.05828793;0.06003232;0.06283662;0.06652787;0.07126839;0.07678767;0.08275778;0.08873706;0.09450975;0.09980365;0.1048144;0.1101011;0.1169432;0.1265679;0.1393692;0.1554071;0.1743424;0.1947368;0.2145195;0.232141;0.2462791;0.2564238;0.2631688;0.2676007;0.2702168;0.2715288;0.2718166;0.2709915;0.2695129;0.2677757;0.2652404;0.2624286;0.2596819;0.2566574;0.2538946;0.2515757;0.2494524;0.2477492;0.2465573;0.2454406;0.2444505;0.2434842;0.2421837;0.2403288;0.2380449;0.2350781;0.2316016;0.2277675;0.2234334;0.2189606;0.2145914;0.2103237;0.206753;0.2042983;0.2011166;0.1981645;0.195756;0.193945;0.1931696;0.1931844
0.09104978;0.08073959;0.07114428;0.06023417;0.0522831;0.04656986;0.04150262;0.03907188;0.0381971;0.03692105;0.03638448;0.0361786;0.03618257;0.03610914;0.03566151;0.03522498;0.03475173;0.03400706;0.03325431;0.03261303;0.03186237;0.03102988;0.03001884;0.02857744;0.02736104;0.02640949;0.02562769;0.02527739;0.02502889;0.02492069;0.02494436;0.02472504;0.02505723;0.02478716;0.02552663;0.02653925;0.0296731;0.03310279;0.03816731;0.04388489;0.05027219;0.05604994;0.06128813;0.06615064;0.07064867;0.07484096;0.07783023;0.07933427;0.07918569;0.07761955;0.07483292;0.07115425;0.06760763;0.06465562;0.06253387;0.0609194;0.05970387;0.05888781;0.0582406;0.05754274;0.0565429;0.05557161;0.05482668;0.05446437;0.05461234;0.05551669;0.05721131;0.05985657;0.06341331;0.06799173;0.07325799;0.0789762;0.08473311;0.09026048;0.09538568;0.1001693;0.105209;0.1118242;0.1210315;0.1333326;0.1487668;0.1670673;0.1867307;0.2059399;0.2230527;0.2368581;0.2467397;0.2533171;0.257696;0.2602514;0.2615496;0.2618608;0.2610653;0.2596537;0.2579647;0.2555633;0.2528554;0.250187;0.2472437;0.2445534;0.2422877;0.2402392;0.2386148;0.237428;0.2363385;0.2353836;0.2344731;0.2332188;0.2314404;0.2292565;0.2263765;0.2230217;0.2192904;0.2151087;0.2108026;0.2065723;0.2024293;0.1990538;0.1967601;0.1936918;0.1908314;0.1884926;0.1867342;0.1859707;0.1859823
0.09451258;0.08429329;0.07448322;0.06306506;0.05503059;0.04907906;0.04386546;0.04142988;0.04056321;0.03919807;0.03874525;0.03851229;0.03857339;0.03856695;0.03818658;0.03784064;0.03726547;0.03644757;0.0357818;0.03503385;0.03419598;0.03327547;0.03222479;0.03079205;0.02947719;0.02856478;0.0277325;0.02730988;0.02705222;0.0269449;0.0269124;0.02676063;0.02713433;0.02677115;0.02763427;0.02861002;0.03185954;0.03553161;0.04086657;0.04682029;0.05351514;0.05955815;0.06501347;0.07015439;0.07489192;0.07923266;0.08235778;0.08393428;0.08382968;0.08219248;0.07916459;0.07542676;0.07174359;0.06871152;0.06645696;0.0647833;0.06356505;0.06271605;0.06206842;0.06132935;0.06026918;0.05928904;0.05855601;0.05813644;0.0583465;0.05931897;0.06110414;0.06385189;0.06759024;0.07233893;0.07781485;0.0837614;0.08970019;0.09543364;0.1006846;0.1056724;0.1108829;0.1176537;0.1270749;0.1395887;0.155263;0.1736855;0.1935337;0.2128009;0.2299096;0.2436524;0.2535636;0.2601414;0.2644534;0.2670712;0.2683858;0.2686681;0.2679383;0.2665462;0.2648363;0.2624452;0.2597951;0.2571718;0.2542422;0.2515966;0.2493379;0.2473377;0.2456842;0.2445362;0.2434486;0.242471;0.2415727;0.2402993;0.2385348;0.2363523;0.2334589;0.2301357;0.2264414;0.2222378;0.2179419;0.2137483;0.209581;0.2061828;0.2038882;0.2008286;0.1979577;0.1956075;0.1938483;0.1930434;0.19301
0.09210081;0.08202907;0.07215601;0.06073323;0.05272255;0.04689631;0.04179394;0.03923332;0.03831432;0.03698131;0.03663845;0.03649939;0.03657158;0.03657068;0.0360983;0.03564098;0.03514917;0.03441301;0.03370374;0.03302147;0.03220034;0.03133122;0.03028038;0.02886944;0.02758445;0.02662374;0.02585271;0.02553473;0.02523151;0.02500219;0.02502677;0.0248449;0.02517977;0.02494378;0.025725;0.02681817;0.03001911;0.0336007;0.03884819;0.04474862;0.051314;0.05726678;0.06267592;0.06766771;0.07232425;0.076599;0.07973193;0.08126481;0.08116029;0.07958362;0.07667719;0.07295554;0.0693553;0.0663418;0.06416675;0.06250082;0.06126802;0.06048262;0.05981802;0.05909671;0.05805141;0.05703916;0.05632387;0.05589694;0.05605375;0.05698906;0.05872031;0.06142056;0.06507519;0.06969538;0.07508812;0.08093531;0.0867624;0.09241898;0.0976093;0.1024932;0.10759;0.1142968;0.1236054;0.1360096;0.1516241;0.1701112;0.1900857;0.2095349;0.2269129;0.2408515;0.2508531;0.2575115;0.2618275;0.264457;0.2657495;0.2660335;0.2652293;0.2637374;0.2619963;0.2595675;0.2568055;0.2541426;0.2511467;0.2484231;0.2461801;0.2441315;0.2424953;0.2413251;0.2402419;0.2393174;0.2383854;0.2371263;0.2353782;0.23311;0.2302171;0.2268633;0.2231053;0.2188368;0.2144771;0.2102136;0.2059956;0.2025543;0.2002242;0.1970944;0.1941899;0.1917976;0.1899647;0.1890703;0.1889919
0.09395085;0.08354797;0.07374351;0.06221058;0.05422074;0.0483336;0.04315578;0.04061262;0.03984351;0.03846534;0.03801177;0.03774549;0.0378936;0.03801427;0.03746658;0.03702348;0.03663613;0.03574495;0.03502011;0.03434868;0.03347278;0.03255546;0.03148266;0.03006386;0.02869934;0.02778359;0.0270345;0.02661986;0.02631844;0.02617348;0.02620125;0.02602378;0.02635877;0.02612873;0.02688113;0.02797824;0.03118751;0.03475168;0.04002187;0.04598474;0.05272724;0.05870394;0.06416844;0.0692492;0.07399704;0.07824469;0.08145272;0.08301771;0.08290377;0.08125267;0.0783499;0.07457782;0.0708938;0.06785644;0.06565993;0.06397749;0.06270406;0.06190385;0.06120218;0.06048819;0.0594038;0.05842243;0.05767107;0.05722922;0.05741817;0.05836689;0.06013328;0.06287225;0.06656679;0.07128832;0.07675021;0.082686;0.08860556;0.0943182;0.09957516;0.1045073;0.1096421;0.1163639;0.1257461;0.1381845;0.1538617;0.1722869;0.1921567;0.2114;0.2285573;0.2423744;0.252193;0.2587338;0.2630363;0.2656271;0.2669075;0.2672104;0.2664032;0.2649678;0.2632958;0.2608587;0.2581841;0.255553;0.2526035;0.2499559;0.2477067;0.2457206;0.2441235;0.2429652;0.2419048;0.2409762;0.2400612;0.2388072;0.2370112;0.234821;0.2319625;0.2285992;0.2248986;0.2206895;0.2163577;0.2121338;0.2079672;0.2045357;0.2021984;0.1991054;0.196201;0.1938278;0.1920087;0.1911487;0.1910879
0.09293924;0.08253913;0.072943;0.06188063;0.05405867;0.04829778;0.04325878;0.04076871;0.0398016;0.03839546;0.0381436;0.0379023;0.03799086;0.03806341;0.03754985;0.03716656;0.03666823;0.03579405;0.03518259;0.03449559;0.03360936;0.03273146;0.03173755;0.03029758;0.02909671;0.02816999;0.02734751;0.02700506;0.02672173;0.02659558;0.02647531;0.02631113;0.02667575;0.02643874;0.02722426;0.02826321;0.03142721;0.03494857;0.04010067;0.04591253;0.05246502;0.05833177;0.06361549;0.06855554;0.07316528;0.07735678;0.08039874;0.08198508;0.08189441;0.08030193;0.07739969;0.07374489;0.0701493;0.06722533;0.0650508;0.06338631;0.06212914;0.06134487;0.06068257;0.05991167;0.05891493;0.05792258;0.05716236;0.05675596;0.05695574;0.05785149;0.05956617;0.06225316;0.06585779;0.07047062;0.07580195;0.08155004;0.08733734;0.09291648;0.09798976;0.1028151;0.1078359;0.1143914;0.1235657;0.1357501;0.1510923;0.1691448;0.1886999;0.2076592;0.2245965;0.2381665;0.2479147;0.2543933;0.2586955;0.2612393;0.2625183;0.2627973;0.2620261;0.2606483;0.2589362;0.2565539;0.2538612;0.2512723;0.2483967;0.2457561;0.2435252;0.2415591;0.2399958;0.23886;0.2378266;0.2368863;0.236011;0.2347646;0.2330015;0.2308453;0.2279968;0.2247244;0.2210441;0.2168985;0.2126449;0.2084909;0.204374;0.2010176;0.1987389;0.1957292;0.1928813;0.1905546;0.1887815;0.187939;0.1879032
0.09145407;0.08137381;0.07198762;0.06112255;0.05350161;0.0476638;0.04272706;0.04027352;0.03941753;0.0381737;0.03780045;0.03754424;0.03754225;0.03757859;0.03715133;0.0368038;0.03645585;0.03555693;0.03495395;0.03427269;0.03341791;0.03260018;0.03161044;0.03013004;0.02887609;0.02807449;0.02729027;0.02696948;0.02667615;0.02646919;0.02644488;0.0262589;0.02658516;0.02635105;0.02713635;0.02813473;0.03126375;0.03474805;0.03978765;0.04549008;0.05189635;0.05761653;0.06287081;0.06771344;0.07222703;0.07628699;0.07934859;0.08085356;0.08075789;0.07918986;0.07641324;0.07285336;0.06937823;0.06648102;0.06438608;0.06282422;0.06163304;0.06081206;0.06018851;0.05952964;0.05851955;0.05758306;0.05683048;0.05647651;0.05662019;0.05754337;0.059243;0.06191396;0.06544386;0.06994525;0.0751645;0.08081998;0.0864938;0.09192082;0.09694233;0.1016211;0.1065664;0.1129603;0.1218401;0.1337447;0.1486862;0.1662972;0.1853575;0.2038856;0.2204267;0.233751;0.243339;0.2496911;0.2539361;0.2564618;0.257753;0.258051;0.2573226;0.2559931;0.2543871;0.2520818;0.2494714;0.2469602;0.2441426;0.2415668;0.2394069;0.2375045;0.2359394;0.2348285;0.2338582;0.2329637;0.2320938;0.2308885;0.2291862;0.2270819;0.2243431;0.2211282;0.2175581;0.2135257;0.2093854;0.2053474;0.2013411;0.1980605;0.1959463;0.1930306;0.1902274;0.1879907;0.1862439;0.1854078;0.1853471
0.09231093;0.08221055;0.0726253;0.06158353;0.05379367;0.04791014;0.04307771;0.04061694;0.03984093;0.03857023;0.03804527;0.03779526;0.03788619;0.03794898;0.03761789;0.03719272;0.03658914;0.03579849;0.03518259;0.03449026;0.03365146;0.03288008;0.03184992;0.03037162;0.02923993;0.02833975;0.02745865;0.02713232;0.02684665;0.02668015;0.02668164;0.02645747;0.02684956;0.0265287;0.02735545;0.02838538;0.03146409;0.03494747;0.04006156;0.04587523;0.05231488;0.05814397;0.06339379;0.06826356;0.07284086;0.07696487;0.08001523;0.08153934;0.08148656;0.07993993;0.07708185;0.07344025;0.06982478;0.06691076;0.06474628;0.06311847;0.06189424;0.0611165;0.06043548;0.05976909;0.05872821;0.05776457;0.05702971;0.05662699;0.05680886;0.05770742;0.05938375;0.06207354;0.06562064;0.07013953;0.07539619;0.0810888;0.08680035;0.0922844;0.09734212;0.1021135;0.1070776;0.1135897;0.1226148;0.1346172;0.1497245;0.167572;0.1868636;0.2056147;0.2223397;0.2358182;0.2454748;0.2519003;0.2561446;0.2586998;0.2599559;0.2602383;0.2594803;0.2580814;0.256429;0.2540613;0.251425;0.24886;0.2460001;0.2433702;0.241164;0.2392341;0.2376587;0.2365388;0.2355247;0.2345937;0.2336938;0.2324831;0.2307602;0.2286001;0.2257688;0.2225487;0.218925;0.2148124;0.2106047;0.2064802;0.2024207;0.1991021;0.1968672;0.1938868;0.1910537;0.1887348;0.1869543;0.1860384;0.1859355
0.0880578;0.07752631;0.06768893;0.05604225;0.04800349;0.04193126;0.03671879;0.0342373;0.03354274;0.0324314;0.03210273;0.0319559;0.03219212;0.03232841;0.03181017;0.03140293;0.03102055;0.03018112;0.02943028;0.02873797;0.02785586;0.02694939;0.02586866;0.02446817;0.02317723;0.02222382;0.02134478;0.02099008;0.02068079;0.02052601;0.02057447;0.02037782;0.0207839;0.02055949;0.02145263;0.02260644;0.02600696;0.02980145;0.03540471;0.04159793;0.04846357;0.05467804;0.06019434;0.06536216;0.0701621;0.07454295;0.07771432;0.07933317;0.07927234;0.07766059;0.07471858;0.07094817;0.0673177;0.06431659;0.06214929;0.06054576;0.05934064;0.05855972;0.05792114;0.05725709;0.0562649;0.05530153;0.05458491;0.05422921;0.05450697;0.05547702;0.05727553;0.0600401;0.06376878;0.06849608;0.07393132;0.0797989;0.08570699;0.09138601;0.09660026;0.1015108;0.1067017;0.1134988;0.1228498;0.1353355;0.1509486;0.1693112;0.1890661;0.2082517;0.2254008;0.2391184;0.2490249;0.255585;0.2599028;0.2625357;0.2638402;0.2641533;0.2633714;0.2619665;0.260283;0.2578707;0.2551703;0.2525737;0.2496513;0.247006;0.2447895;0.242818;0.2412324;0.2400615;0.2390158;0.2381056;0.2372014;0.2359885;0.2342067;0.2320219;0.2291993;0.2258615;0.2221642;0.217966;0.2136644;0.2094645;0.205291;0.201898;0.1996198;0.1965374;0.1936735;0.1913109;0.1894773;0.1886032;0.1885584
0.08796751;0.07787417;0.06800209;0.05648208;0.04826173;0.04249173;0.03731046;0.03503908;0.03426356;0.03298292;0.0327563;0.03260355;0.03271667;0.0328913;0.0325828;0.0321997;0.03184593;0.03095365;0.03022952;0.02962234;0.02870867;0.02788822;0.0269133;0.0254213;0.02416525;0.0232486;0.02243066;0.02208438;0.02180018;0.02167705;0.02169557;0.0215394;0.02190979;0.02173216;0.02259974;0.02379853;0.0271635;0.03094083;0.03641403;0.04256105;0.04934438;0.05536089;0.06082927;0.06591703;0.07063881;0.07490288;0.07806042;0.07974242;0.07961561;0.07804411;0.07515138;0.07151709;0.06793138;0.06499592;0.06289116;0.06129473;0.06014645;0.059418;0.05878192;0.05811716;0.05717115;0.05622837;0.05555224;0.05517062;0.05542705;0.05643982;0.05819811;0.06092898;0.06460606;0.06919039;0.07452756;0.08029691;0.08603162;0.09159561;0.09669476;0.1015479;0.1065872;0.1131737;0.1223063;0.1345403;0.1497649;0.1677175;0.1870998;0.2058979;0.2226705;0.2362211;0.2459003;0.2523921;0.2566753;0.2592458;0.2605343;0.2608259;0.2600763;0.2587057;0.2570376;0.2546758;0.2520278;0.2494522;0.2466342;0.2440106;0.2418427;0.2398851;0.2383158;0.2371857;0.2361787;0.235242;0.2343785;0.2331107;0.2314153;0.2292777;0.2264621;0.223199;0.2195509;0.21541;0.2111787;0.2070436;0.2029597;0.1996182;0.1973681;0.1943372;0.1914902;0.1891974;0.1873918;0.1865754;0.1865541
0.08675992;0.07654055;0.06690063;0.05559488;0.0474693;0.04150454;0.03643066;0.03411622;0.03335515;0.03219789;0.03195964;0.03192054;0.03208885;0.0322421;0.03193947;0.03148636;0.03112619;0.03033534;0.02962558;0.02906567;0.02818619;0.02725286;0.02625217;0.02481121;0.02360545;0.02266064;0.02185176;0.02148652;0.02122971;0.02111805;0.0211244;0.0210228;0.02136886;0.0211691;0.02209195;0.02326249;0.02660253;0.03035022;0.03587033;0.04202291;0.04877423;0.05479637;0.06027333;0.06529576;0.07002313;0.07429861;0.07743089;0.07912733;0.07901444;0.07739833;0.07455193;0.07093751;0.06742957;0.06451243;0.06242314;0.0608672;0.05970471;0.05898854;0.05836368;0.05773518;0.05675435;0.05588956;0.05517778;0.0548494;0.05513397;0.05609079;0.05785693;0.06061182;0.06423446;0.06886177;0.07418091;0.07991366;0.08563008;0.09111805;0.09616286;0.1009808;0.1060201;0.1125454;0.1215902;0.1336284;0.148747;0.1663801;0.1854001;0.2038841;0.220333;0.2335672;0.2431102;0.2494613;0.2536267;0.2561734;0.2574329;0.2577554;0.2570747;0.2557319;0.25417;0.2518299;0.2492484;0.2467946;0.2439816;0.2414663;0.2393902;0.237488;0.23596;0.2348893;0.2338729;0.23301;0.2321389;0.2309824;0.2292912;0.2271841;0.2244457;0.2212732;0.2176971;0.2136596;0.209507;0.2054123;0.2014071;0.1981137;0.1959451;0.1929789;0.1901714;0.1878616;0.1860917;0.1852371;0.1851764
0.08845002;0.07790776;0.06779209;0.0564422;0.04827595;0.04214763;0.03692218;0.03457065;0.03380208;0.03263969;0.03229966;0.03227811;0.03247909;0.03258737;0.0322324;0.03183788;0.03143368;0.03058485;0.0298198;0.0291081;0.02823713;0.0273814;0.02623733;0.02472348;0.02343572;0.02250432;0.02170307;0.02133494;0.02102522;0.02088747;0.02089862;0.02077003;0.02115455;0.02088495;0.02182004;0.0230395;0.02642981;0.03029633;0.03592995;0.04226695;0.04920517;0.05541176;0.06099417;0.06614673;0.07111967;0.0754478;0.07874606;0.08037932;0.08029577;0.07865755;0.0757089;0.07194524;0.06827841;0.06530554;0.063133;0.06147812;0.06029972;0.05956807;0.05887935;0.05823635;0.05726292;0.05627519;0.05559565;0.05525878;0.05551319;0.05648414;0.05832181;0.06115247;0.06486338;0.06965662;0.07512421;0.08105921;0.08698595;0.09266619;0.09785457;0.1028575;0.1080665;0.114818;0.1241695;0.1366506;0.1522586;0.1705319;0.1901733;0.2092227;0.2261808;0.2398389;0.2496758;0.2561895;0.2604995;0.2630826;0.2644047;0.2647458;0.2639732;0.262618;0.260957;0.2585497;0.2559121;0.2532848;0.2504778;0.2478678;0.2456863;0.2437009;0.2421378;0.2410022;0.239976;0.2390871;0.2382168;0.2369737;0.2352157;0.233079;0.230257;0.2269639;0.2232801;0.2191087;0.2148392;0.2106267;0.2064788;0.2030838;0.2008236;0.1977335;0.1948293;0.1924103;0.1905093;0.1894545;0.1892292
0.08756594;0.07718316;0.06706374;0.05560056;0.04747856;0.04140252;0.03634002;0.03378754;0.03309535;0.03183718;0.03154347;0.031462;0.03160933;0.03167412;0.0312892;0.03092518;0.03039874;0.0295772;0.02890875;0.02823322;0.02734425;0.02642608;0.02540452;0.02396048;0.02269185;0.0217525;0.02091083;0.02062902;0.02037386;0.02021813;0.02024492;0.02009439;0.02047122;0.02025558;0.02115933;0.0223619;0.02564527;0.02944698;0.03494005;0.04109947;0.04797371;0.05400655;0.05952574;0.06470364;0.06947742;0.07383065;0.07705034;0.07865096;0.07854736;0.07694633;0.07399572;0.07033658;0.06672949;0.06377724;0.06160045;0.05998608;0.0588221;0.05805545;0.05745459;0.05675596;0.05577834;0.05480671;0.05414592;0.05378067;0.0540478;0.05498602;0.05679458;0.05956559;0.0632607;0.06793573;0.07337388;0.07922481;0.08505764;0.09071819;0.09591702;0.1008494;0.1060211;0.1127752;0.1221532;0.1347203;0.1504582;0.1689115;0.1887619;0.2080528;0.2252221;0.2390285;0.2489364;0.2555648;0.2598986;0.2624711;0.2637906;0.2640681;0.2632897;0.2619261;0.2602028;0.2577726;0.2550167;0.2524046;0.2494674;0.2468074;0.2445765;0.242593;0.2410085;0.23981;0.238784;0.2378604;0.2369565;0.2356992;0.2339226;0.2317233;0.2288565;0.2254769;0.2217239;0.2174712;0.2131027;0.2088367;0.2045957;0.2011162;0.1987398;0.1955863;0.1926104;0.190182;0.1882914;0.1872751;0.1871106
0.08840395;0.07785399;0.06784886;0.05606591;0.04774275;0.04187223;0.03672541;0.0342373;0.03354534;0.03235278;0.03199141;0.03206253;0.03240534;0.03245442;0.03205124;0.03159095;0.03110292;0.03033992;0.02960688;0.02892119;0.02793443;0.0271113;0.02603731;0.02452125;0.02323645;0.02229569;0.02145998;0.02108029;0.02075981;0.02066786;0.02067754;0.02051705;0.02092529;0.02077766;0.02171549;0.0229866;0.02649404;0.03047425;0.03618027;0.04251602;0.0495269;0.05569277;0.06130914;0.06639178;0.07121499;0.07547254;0.07865994;0.08025656;0.08011729;0.07850308;0.07553338;0.07185509;0.06819712;0.06528074;0.06313971;0.061481;0.06030238;0.05956961;0.05895428;0.05826057;0.05735724;0.0563867;0.05572753;0.05540621;0.05569899;0.05672752;0.05858419;0.06142829;0.06517658;0.06994798;0.07539564;0.08129498;0.08712328;0.09278186;0.09793202;0.1029318;0.1081799;0.1150649;0.1245982;0.1372879;0.1531003;0.17163;0.1914142;0.2106204;0.2276936;0.2413446;0.2512534;0.2578003;0.2621133;0.2646955;0.2659842;0.2662635;0.2654098;0.2639199;0.2621932;0.2597197;0.2569172;0.2541953;0.2512209;0.2485205;0.2461735;0.2441273;0.2424515;0.2411981;0.2400827;0.2390781;0.2380987;0.236781;0.2349918;0.2327309;0.2298378;0.226445;0.222693;0.2184327;0.2141208;0.2098741;0.2056818;0.2022415;0.1999081;0.1968232;0.1939242;0.1915825;0.1897842;0.1889734;0.1889568
0.08940817;0.07868575;0.06863388;0.05694605;0.04844182;0.04251371;0.03736283;0.03473336;0.03399619;0.03277633;0.03248041;0.03242084;0.0325689;0.03267423;0.03232079;0.03188071;0.03137841;0.03054575;0.0298463;0.02903589;0.02821128;0.02728934;0.02615742;0.02466653;0.02340619;0.0224112;0.02155311;0.02115995;0.02091887;0.02080976;0.02078064;0.02066144;0.02109681;0.0208645;0.02180008;0.02306843;0.02657261;0.03051364;0.0362966;0.04266936;0.04967938;0.05584266;0.06149145;0.06668226;0.07150209;0.07586175;0.07904438;0.08066713;0.08048981;0.07886154;0.07585185;0.07210148;0.06843361;0.06548179;0.06327727;0.06166863;0.0604841;0.05969614;0.05907745;0.05840382;0.05745019;0.05652228;0.05583801;0.05549196;0.05582445;0.05680919;0.05870613;0.06156854;0.06537298;0.07012281;0.07564684;0.08158334;0.08750706;0.09320375;0.09844705;0.1034636;0.10875;0.1157162;0.1253581;0.1381474;0.154108;0.1727514;0.1926582;0.2118873;0.2290036;0.2426672;0.2525322;0.2590926;0.2633702;0.2659584;0.2672418;0.267485;0.2666709;0.26523;0.2634718;0.2610106;0.2582185;0.2555483;0.2525592;0.2498379;0.2475379;0.2454836;0.2438058;0.2425804;0.2414252;0.2404084;0.2394637;0.2381242;0.2363192;0.2340418;0.2311464;0.227735;0.2239963;0.2197295;0.2154097;0.2111502;0.2069535;0.2034716;0.2011185;0.1979989;0.1950766;0.1927011;0.1909127;0.1900805;0.1900557
0.08894343;0.0784727;0.06852922;0.05694426;0.04882096;0.04294675;0.03772435;0.03531683;0.03448481;0.03335702;0.0331784;0.03306238;0.03324299;0.03340855;0.03304926;0.03266985;0.03213716;0.03117138;0.03056054;0.02983905;0.02894191;0.02799438;0.02704953;0.02558787;0.02424954;0.0232834;0.02246681;0.02213373;0.02184971;0.02162362;0.02171508;0.0215288;0.02197907;0.02175936;0.02270986;0.0239057;0.02738972;0.03135797;0.03701432;0.04326821;0.05030834;0.05639258;0.06192302;0.06703685;0.07173923;0.07609725;0.0791992;0.08085185;0.08075793;0.07913283;0.07617488;0.07249724;0.06888218;0.0659408;0.06380722;0.06220696;0.06100771;0.06025431;0.05969486;0.05900265;0.05807911;0.05717649;0.0564763;0.05619723;0.05649319;0.05750413;0.05939068;0.0622194;0.06597946;0.07072497;0.07618892;0.08201176;0.08783647;0.09345362;0.09861968;0.1035566;0.1088248;0.1156553;0.1251034;0.137645;0.1532859;0.1714843;0.1909165;0.2097376;0.2264113;0.2397941;0.2494296;0.255832;0.2600972;0.2626227;0.2639087;0.264221;0.2634368;0.2619878;0.2603256;0.2579323;0.2552474;0.2526695;0.2497478;0.2471533;0.2449149;0.2429369;0.2413039;0.2401652;0.2390807;0.2381383;0.2372025;0.2359429;0.2341827;0.232028;0.2291932;0.2259058;0.222272;0.2181532;0.2139355;0.2097995;0.2057194;0.2023878;0.2002093;0.1971707;0.1943527;0.1920936;0.1903875;0.1897232;0.1897885
0.0897445;0.07901432;0.06879415;0.05692927;0.04882972;0.04259044;0.03743373;0.03496784;0.03414401;0.03295297;0.03282372;0.0327626;0.03296063;0.03306134;0.03260408;0.03222349;0.03170708;0.03082603;0.0301162;0.02935079;0.0283349;0.02742411;0.02628979;0.02477552;0.02346532;0.02245026;0.02158734;0.02125097;0.02088492;0.02072597;0.02077373;0.02060989;0.02101104;0.02082302;0.02180258;0.02307017;0.02665796;0.0307132;0.03656824;0.04308831;0.05024351;0.05662677;0.06238097;0.06766986;0.07258541;0.07703473;0.08030631;0.08193654;0.08178926;0.08010371;0.07708135;0.07326525;0.0694687;0.06648064;0.06421529;0.06257855;0.06134335;0.06053132;0.05996527;0.059265;0.05828647;0.05731422;0.05663117;0.05630718;0.05662135;0.057652;0.05959451;0.06250402;0.06637595;0.07130946;0.07692365;0.08300854;0.0890259;0.09483695;0.1001678;0.1052916;0.1106551;0.1177326;0.1274684;0.1403733;0.1563791;0.175004;0.1948509;0.2139411;0.2308608;0.2444722;0.2541539;0.2606414;0.2649432;0.2674648;0.2687381;0.2690318;0.2682283;0.2668332;0.265097;0.2626998;0.2599848;0.2573228;0.2544257;0.2517388;0.2494577;0.2474062;0.2457474;0.2445312;0.243413;0.2424149;0.241437;0.2401515;0.238339;0.2361142;0.2332255;0.2298895;0.2261849;0.221983;0.2176587;0.2134491;0.2093052;0.205877;0.2035731;0.2004764;0.1975699;0.1952062;0.1933802;0.1925083;0.1924467
0.08969323;0.07878729;0.06868937;0.05696787;0.04860348;0.04247956;0.03722149;0.03482518;0.03411312;0.03296318;0.03276103;0.03266147;0.03285829;0.03303755;0.0327035;0.03229778;0.03177556;0.03091746;0.03025712;0.02950312;0.02855708;0.02769922;0.02660774;0.02509348;0.0238112;0.02281285;0.02200223;0.02162941;0.02133827;0.02116474;0.02123323;0.02105865;0.02149375;0.021364;0.02223843;0.02345861;0.02707352;0.0310446;0.03689703;0.04330296;0.05041644;0.05672322;0.06240036;0.06765428;0.07249543;0.07691234;0.08014975;0.08171083;0.08159668;0.0799486;0.07696646;0.0731739;0.06950547;0.06645578;0.06430437;0.06266224;0.06145093;0.06071056;0.06006496;0.05938566;0.058404;0.05749399;0.0568079;0.05647649;0.05676605;0.05785457;0.05973415;0.06261944;0.06645256;0.07128989;0.07684728;0.08280168;0.08872106;0.09447204;0.09970936;0.1047559;0.1100815;0.1169986;0.1266264;0.1394074;0.1553047;0.1737504;0.193514;0.212559;0.2294817;0.2430326;0.2527388;0.2592317;0.263506;0.2660697;0.2673396;0.2676181;0.2668234;0.2653756;0.2636351;0.2612103;0.2584503;0.255816;0.2528586;0.2501682;0.2478803;0.2458537;0.2441847;0.2429581;0.2418307;0.2408388;0.2398764;0.2385618;0.2367377;0.2345048;0.2316363;0.2282657;0.224579;0.2203206;0.2160235;0.2117885;0.2076251;0.2041855;0.2018254;0.1987228;0.1958276;0.1934427;0.1916418;0.1908084;0.1907768
0.09362018;0.08324773;0.07345977;0.06221004;0.05426561;0.04829613;0.04361646;0.04111405;0.04019473;0.03891628;0.03849207;0.03845055;0.03845892;0.03833022;0.03784971;0.03755993;0.03705719;0.03603918;0.03558052;0.03479342;0.03391743;0.03315768;0.03218694;0.03076032;0.02954051;0.02867414;0.02775353;0.02742428;0.02727477;0.02715558;0.0270664;0.02694861;0.0273367;0.0270561;0.02788396;0.02896759;0.03206851;0.03568463;0.04088585;0.04692488;0.0535346;0.05938242;0.06464546;0.0695333;0.07400359;0.07810158;0.08111428;0.0825497;0.08242957;0.08085817;0.07803263;0.07437199;0.07094111;0.06802672;0.06596506;0.06442983;0.06322577;0.06244409;0.06184894;0.06114472;0.06021873;0.05926326;0.05863785;0.05841703;0.05874045;0.05974712;0.06160918;0.06440935;0.06824227;0.07293339;0.07834684;0.08402019;0.08973143;0.09524827;0.1003412;0.1052595;0.1104781;0.1173267;0.12692;0.139692;0.1555461;0.1739643;0.1935918;0.2125393;0.2292817;0.2427984;0.2524824;0.2590185;0.2633117;0.2659011;0.2671477;0.2673534;0.2664789;0.264904;0.2629961;0.2603994;0.257551;0.2548259;0.2518104;0.2490737;0.2467031;0.2445666;0.2429161;0.2416624;0.240463;0.2394029;0.2384079;0.2370031;0.2351505;0.2329438;0.230078;0.2267446;0.223096;0.2189858;0.2146803;0.2104821;0.2063848;0.2029716;0.2007172;0.1976877;0.1948075;0.1925129;0.1907959;0.1899858;0.1899621
0.09192175;0.08126991;0.07182493;0.06022184;0.05237533;0.04658527;0.04161701;0.03910808;0.03825827;0.03715008;0.03675988;0.03659918;0.03660318;0.03650494;0.03606572;0.03576761;0.03525523;0.03426842;0.03373248;0.03304869;0.03217107;0.03151435;0.03045194;0.02913939;0.02787357;0.02697081;0.02611184;0.02578339;0.02563419;0.02549042;0.02542914;0.02538978;0.02571791;0.02543441;0.02625383;0.02736089;0.0305352;0.03413373;0.03939545;0.04541425;0.05203655;0.05793776;0.06325603;0.06812928;0.07268587;0.0767785;0.07980312;0.0813073;0.08115672;0.079608;0.07673963;0.07310209;0.0696599;0.06678028;0.06473587;0.06314728;0.06200416;0.06122973;0.0606151;0.05992239;0.05902996;0.05810255;0.05751102;0.05729342;0.05762141;0.05864908;0.0605399;0.06336971;0.06720027;0.07186511;0.07728484;0.08302869;0.08871907;0.09425156;0.09936987;0.1042486;0.1095067;0.1164404;0.1260422;0.1387881;0.1546201;0.1730764;0.1926114;0.2114554;0.2280036;0.241459;0.2510548;0.2575743;0.2618361;0.2644327;0.2657526;0.266014;0.2651303;0.2636243;0.2617662;0.2592369;0.256487;0.2538042;0.2508679;0.2481891;0.2458902;0.2438612;0.2421874;0.2409685;0.2398273;0.2388079;0.2378397;0.236489;0.2346751;0.2325068;0.2296825;0.2264009;0.2227895;0.2187228;0.2144703;0.2103214;0.2062626;0.2028982;0.2006823;0.1976793;0.1948534;0.1926779;0.1911176;0.1905446;0.1908484
0.09631563;0.08544146;0.07553359;0.06386412;0.05578264;0.049759;0.0448008;0.042175;0.04129219;0.04029244;0.03980005;0.03959078;0.03963479;0.03962507;0.03920797;0.03884508;0.03838162;0.03740903;0.03680621;0.03604397;0.0351695;0.03442843;0.03333375;0.03191308;0.03046972;0.02964224;0.02872381;0.0283524;0.02818445;0.02805514;0.0279018;0.02784802;0.02823958;0.02789797;0.02883644;0.0299291;0.03324721;0.03688186;0.04233773;0.04866627;0.05552396;0.06165263;0.06711268;0.07226092;0.07695157;0.08121966;0.08435488;0.08589455;0.08570083;0.08407199;0.08108381;0.07731844;0.07379215;0.07078201;0.0686869;0.06704623;0.06587522;0.06509507;0.06445616;0.06379689;0.0628183;0.06186162;0.06121241;0.06098815;0.06133774;0.06235399;0.06433316;0.06725375;0.0712067;0.07602492;0.08161791;0.08752749;0.09344396;0.09911158;0.104338;0.1094115;0.1147851;0.1218608;0.1316909;0.1447712;0.1609205;0.1796223;0.1994706;0.2185679;0.2353797;0.248959;0.2586929;0.2652604;0.2695757;0.2721746;0.2735069;0.2737805;0.2729164;0.2713967;0.2695158;0.2669755;0.2642101;0.2615179;0.258558;0.2558409;0.2535525;0.2514656;0.2497908;0.2485967;0.2474216;0.2463872;0.2454048;0.2440155;0.2421926;0.2400033;0.2371221;0.2337894;0.2301499;0.2259988;0.2217187;0.2174481;0.2133256;0.2098696;0.2075386;0.204491;0.201574;0.1992386;0.1974708;0.1966286;0.1965616
0.09235411;0.08189759;0.07234653;0.06118847;0.05306105;0.04712952;0.04240537;0.03979766;0.03901337;0.03786978;0.03728901;0.03716842;0.03719665;0.0371146;0.03671611;0.03635445;0.03576707;0.03487457;0.03439245;0.03373172;0.03285143;0.03224215;0.03111344;0.02974867;0.02852333;0.02762746;0.02683004;0.02649703;0.02636861;0.02624847;0.02619058;0.02606142;0.02651128;0.0261364;0.02702601;0.02805518;0.03130459;0.03484906;0.04002454;0.04595799;0.05253803;0.05839411;0.06378178;0.06864725;0.07316544;0.07723983;0.08033516;0.08182816;0.08172451;0.08014435;0.07721822;0.07357696;0.07017216;0.06728315;0.06524631;0.06367741;0.0624947;0.06178385;0.06115626;0.06044871;0.05956633;0.05862786;0.05801906;0.05777128;0.05813013;0.05908734;0.06102531;0.0638722;0.06767122;0.07232969;0.07776567;0.08351876;0.08923122;0.09476801;0.09992086;0.104822;0.1101168;0.1170202;0.1267058;0.1395521;0.1555047;0.1740276;0.1937664;0.2127395;0.2295308;0.243096;0.2528045;0.2594086;0.2637629;0.2663732;0.267709;0.2679962;0.2671305;0.2656017;0.263717;0.2612227;0.2584334;0.2557863;0.2527846;0.2500683;0.2477545;0.2456821;0.2440276;0.2427834;0.241677;0.240585;0.2396293;0.2382533;0.236402;0.2342287;0.231407;0.2280795;0.2244112;0.2202875;0.2160186;0.2118145;0.2077077;0.2042914;0.2020209;0.1989632;0.1960461;0.1937395;0.1919595;0.1910802;0.1910117
0.09207223;0.08184353;0.07224228;0.06118562;0.05341009;0.04788912;0.04309426;0.04039303;0.03966376;0.0386194;0.03803504;0.03787056;0.03792214;0.03785716;0.03741411;0.03705822;0.0365034;0.03560359;0.03511855;0.03446794;0.0336837;0.03286133;0.03191158;0.03049244;0.02927498;0.02843334;0.0275461;0.02720169;0.02708621;0.02695759;0.02696092;0.02682875;0.02718438;0.02690279;0.0276836;0.02869586;0.03184395;0.03538294;0.04051234;0.04644421;0.05290609;0.05864696;0.06380668;0.06859587;0.07304025;0.07705308;0.07996733;0.08146466;0.08125205;0.07975318;0.07697038;0.07342422;0.07008992;0.06722968;0.065253;0.06368168;0.06257588;0.06183641;0.06125646;0.06059378;0.05968316;0.05878609;0.05821792;0.05798406;0.05831731;0.05931073;0.06116428;0.06394684;0.06768905;0.07227073;0.07753427;0.08313873;0.0887154;0.09411576;0.0990817;0.1038887;0.1089937;0.1157337;0.1251068;0.1375907;0.1530382;0.171049;0.1901969;0.2086877;0.2250559;0.2383;0.247759;0.2542334;0.2584663;0.2610427;0.2623465;0.2625894;0.2617829;0.2603132;0.2584916;0.2560321;0.2533004;0.2506742;0.2477872;0.2451303;0.2428652;0.2408559;0.2392281;0.2379996;0.2369052;0.2358868;0.2349142;0.2335905;0.2317936;0.2296461;0.2268468;0.2236565;0.220105;0.2160811;0.2119252;0.2078132;0.2037951;0.2005137;0.198354;0.1953975;0.1925797;0.1903617;0.188649;0.1879043;0.1879047
0.08579663;0.07564371;0.06570137;0.05438746;0.04608226;0.0403533;0.03527944;0.03309448;0.03252273;0.03137415;0.03111867;0.03100618;0.03109149;0.03113874;0.03068315;0.03032744;0.02996155;0.02911405;0.0283802;0.02768588;0.02690469;0.02606648;0.02502156;0.02356044;0.02236541;0.02146754;0.02072552;0.02045257;0.02024993;0.02023168;0.02039142;0.02030077;0.02086561;0.02069001;0.02167527;0.02289619;0.02637576;0.03027924;0.03591244;0.04221105;0.04908128;0.05499702;0.06021805;0.06498532;0.06936486;0.07332419;0.07620503;0.07760382;0.0774354;0.07585301;0.0730489;0.06955274;0.06625897;0.0635044;0.06155695;0.06006166;0.05892121;0.05822841;0.05762469;0.05704435;0.0561787;0.05540223;0.05488789;0.05479002;0.05530461;0.05649118;0.05855056;0.06155836;0.06541382;0.07019722;0.07550758;0.08113034;0.08665605;0.09203281;0.09701511;0.1019499;0.1073679;0.1146139;0.1247773;0.1381122;0.1544363;0.172899;0.1921808;0.210399;0.2264139;0.2392504;0.2485436;0.2547985;0.2589518;0.2614633;0.2626327;0.2627819;0.2618042;0.2600997;0.2580908;0.2554161;0.2524871;0.2496533;0.2465766;0.2437861;0.2413996;0.2392952;0.2375285;0.2361714;0.2349518;0.2338008;0.2327135;0.2313304;0.2294219;0.2272214;0.2243248;0.2210592;0.2174881;0.2134461;0.2092999;0.2052435;0.2012443;0.1979545;0.1957815;0.192798;0.1899713;0.1876394;0.1857853;0.184737;0.1845296
0.08324671;0.0731153;0.06372434;0.05235557;0.0446913;0.03899751;0.0341425;0.03205322;0.03151466;0.03042255;0.03005858;0.02984132;0.02998931;0.03007849;0.02966451;0.02936379;0.02887168;0.02803302;0.02755282;0.02675792;0.02592612;0.02519777;0.02425628;0.0228591;0.021695;0.02088519;0.02018736;0.01989083;0.0196977;0.01964693;0.01975231;0.01971856;0.02027203;0.02014936;0.02114643;0.02238569;0.02574739;0.02946606;0.03484552;0.04093248;0.04751279;0.05329671;0.05828235;0.06286108;0.06701673;0.07084147;0.07354718;0.07497182;0.07477579;0.07330798;0.07068218;0.06734902;0.06412992;0.06152758;0.0596472;0.05817695;0.05711311;0.05644432;0.05588609;0.05530865;0.05451501;0.0537803;0.05330938;0.05318568;0.05365274;0.05483002;0.05684082;0.05970901;0.06339586;0.06793179;0.0730637;0.07845497;0.08371952;0.08885136;0.09364432;0.09836522;0.1035371;0.1105025;0.1201481;0.13298;0.1485837;0.1664007;0.184974;0.2026209;0.218175;0.2306259;0.2396579;0.2457523;0.2498299;0.2522772;0.2534274;0.253593;0.2526359;0.2510071;0.2490572;0.2464656;0.2435535;0.2408293;0.2378039;0.2350828;0.2327873;0.2306962;0.2290087;0.2277187;0.2265165;0.2253986;0.2243646;0.2230065;0.221181;0.218998;0.2162304;0.2130738;0.2096226;0.2057246;0.2017742;0.1978777;0.1940185;0.1908616;0.1888488;0.1860078;0.1833498;0.1811714;0.1794846;0.1786527;0.1785789
0.08560769;0.07540946;0.06528799;0.05410759;0.04597396;0.04001604;0.03535913;0.03302091;0.03248333;0.03153973;0.03133097;0.03114599;0.03118089;0.031292;0.03101714;0.03059095;0.03011017;0.02936234;0.02869673;0.02802629;0.02714069;0.02628082;0.02536605;0.02392796;0.02271043;0.02179896;0.02103964;0.02078647;0.02062211;0.02051185;0.02066501;0.02059967;0.02112447;0.02101639;0.02199861;0.02333632;0.02675109;0.03065105;0.03627943;0.04257658;0.04944101;0.05538874;0.06064217;0.06540542;0.06981483;0.07370015;0.07656822;0.07795786;0.07781009;0.07627942;0.07349794;0.07004138;0.06670503;0.06404628;0.06211305;0.06057161;0.05946878;0.05878487;0.05816615;0.05761803;0.05675895;0.05601004;0.05550352;0.05540848;0.05586783;0.05708298;0.05913414;0.06211071;0.06596175;0.07070239;0.07599176;0.08153918;0.08704238;0.09230126;0.0972824;0.1021184;0.1075373;0.1146679;0.1246399;0.1377901;0.1538606;0.1720119;0.1909844;0.208941;0.2246881;0.2372818;0.2464634;0.2525979;0.2567089;0.2591839;0.2603201;0.2605224;0.2595791;0.2579846;0.2560241;0.2534341;0.2505674;0.2477912;0.2448118;0.2420938;0.2397858;0.2377228;0.2359858;0.2346999;0.2335001;0.2323711;0.2313303;0.2299517;0.2281213;0.2259089;0.223114;0.2199399;0.2164276;0.2124547;0.2084143;0.2044369;0.2004934;0.1972832;0.1951752;0.1922698;0.1895167;0.187249;0.1854946;0.184585;0.1844561
0.08576772;0.07541806;0.06559698;0.05438554;0.04647057;0.0406714;0.0356064;0.03366028;0.03309369;0.03191613;0.03157664;0.03140217;0.03151979;0.03166284;0.03132388;0.03087401;0.03041957;0.02958672;0.02894439;0.02832124;0.02744331;0.0266015;0.02563165;0.02426082;0.02309146;0.02222656;0.02149229;0.02120009;0.02100757;0.02096996;0.02113925;0.02102279;0.02157553;0.02149724;0.02250221;0.02369481;0.02710814;0.03092407;0.03643513;0.04265702;0.0493688;0.05527839;0.06046029;0.06515634;0.06938532;0.07334641;0.07611731;0.0775153;0.07734861;0.07585543;0.07311873;0.0697326;0.06649809;0.06381904;0.06192029;0.06041262;0.05936479;0.05863338;0.05809242;0.05747408;0.05666695;0.05592079;0.05545985;0.05534422;0.05582583;0.05702107;0.05905285;0.06201002;0.06580336;0.07048827;0.0757599;0.08130854;0.08677405;0.09201429;0.09697804;0.1017963;0.1071583;0.1143242;0.1242704;0.1374305;0.1534698;0.1716734;0.1906359;0.2086313;0.2244426;0.2371014;0.2462617;0.2524421;0.2565522;0.2590157;0.2602099;0.2603953;0.259433;0.2578231;0.2558661;0.2532021;0.2503229;0.2475502;0.2445382;0.2417909;0.2394696;0.2373829;0.2356804;0.2343514;0.2331747;0.2320491;0.2310116;0.2296367;0.2277954;0.2256023;0.2227958;0.2196245;0.2160904;0.2121527;0.2081107;0.2041128;0.200186;0.1969995;0.1949513;0.1920545;0.1893161;0.1870622;0.1853057;0.1843384;0.1841658
0.08488407;0.07452706;0.06471526;0.05353942;0.04567799;0.03994017;0.0349321;0.03275676;0.03226571;0.03124912;0.03095668;0.03080441;0.03088741;0.03097592;0.03063929;0.03027703;0.0298413;0.02906142;0.02843971;0.02773536;0.02697197;0.02616651;0.02515729;0.02381023;0.02263074;0.02175172;0.02106815;0.02072492;0.02053814;0.02053412;0.02063635;0.02053753;0.02110779;0.02099647;0.02197433;0.02327451;0.02668461;0.03042887;0.03594789;0.04213757;0.04889334;0.05469728;0.05984671;0.06451503;0.06878867;0.07265363;0.07553751;0.07691753;0.0767346;0.07525188;0.07250837;0.06913326;0.06589093;0.06325763;0.06132304;0.0598816;0.05877111;0.05810552;0.057553;0.05697417;0.05615662;0.05542143;0.05493243;0.05480637;0.05532079;0.05652519;0.0585287;0.06147175;0.06529346;0.06990674;0.07516285;0.08064184;0.08606905;0.09128899;0.09620032;0.1009815;0.1063058;0.1133867;0.12326;0.1362918;0.1521565;0.1701556;0.1889225;0.2066946;0.2222573;0.2347839;0.2438356;0.2499629;0.2539889;0.2564066;0.2576013;0.2577911;0.2568465;0.2552556;0.2533596;0.250751;0.2479253;0.2451799;0.2422226;0.2395401;0.2372711;0.2352028;0.233521;0.2322206;0.2310303;0.229949;0.2289173;0.2275569;0.2257562;0.2235741;0.220794;0.2176305;0.2141957;0.2102679;0.2062362;0.2023071;0.1984263;0.1952639;0.1931895;0.190322;0.1876064;0.1853724;0.1836244;0.1827317;0.1826032
0.08496473;0.07471652;0.06517459;0.05389024;0.04615056;0.04025115;0.03512402;0.03300895;0.03217744;0.03099394;0.03080276;0.03076674;0.03095793;0.03108548;0.03074938;0.03039222;0.0299553;0.02911951;0.02844276;0.02781831;0.0268818;0.02602824;0.02507725;0.02369216;0.02244167;0.02154845;0.02078502;0.02046043;0.02020025;0.02011895;0.02012488;0.02001775;0.02038735;0.02018657;0.02109399;0.02220612;0.02550877;0.02915432;0.03450133;0.04043579;0.04713209;0.05299153;0.05826916;0.06320276;0.06778725;0.07194841;0.0749602;0.07653523;0.07647883;0.07493807;0.07219069;0.06867984;0.06520548;0.06237248;0.06026445;0.05872695;0.05754646;0.05681803;0.05620207;0.05551783;0.05453152;0.05359812;0.05289781;0.0525308;0.05274317;0.05371165;0.05545107;0.05815085;0.06172167;0.066275;0.07156723;0.07720599;0.08287797;0.08831991;0.09335982;0.09808653;0.1030118;0.1095028;0.118473;0.1304986;0.1456256;0.1632979;0.1824616;0.2010898;0.2176707;0.2310156;0.2405537;0.2469274;0.2511401;0.2536113;0.2548319;0.2550659;0.2542289;0.2528242;0.2510766;0.2486877;0.2460109;0.2434063;0.24056;0.2379746;0.2357927;0.2339047;0.2323668;0.2312747;0.2302834;0.2293979;0.2285222;0.2273234;0.2256099;0.223471;0.2206923;0.2174161;0.213844;0.2097808;0.2056303;0.2015411;0.1975188;0.1942162;0.1919886;0.189019;0.1862305;0.1839211;0.1821433;0.1812324;0.181136
0.08499418;0.07488011;0.06517529;0.05403508;0.04616957;0.04023699;0.03524211;0.03301797;0.03224797;0.03121087;0.03086774;0.03082014;0.03100213;0.03112016;0.03079272;0.03045605;0.0301195;0.02921447;0.02861929;0.02804185;0.02710951;0.02632199;0.02538867;0.02397195;0.02281143;0.02189612;0.02113659;0.02085523;0.02061578;0.02053472;0.02059845;0.02043512;0.0207929;0.02061562;0.02143332;0.02266287;0.02586353;0.0294663;0.03469507;0.04055411;0.04709817;0.05291922;0.05812621;0.06295206;0.06750167;0.07163098;0.07464909;0.07619645;0.07608993;0.07464;0.07190926;0.06843378;0.06505764;0.06220084;0.06020902;0.0586746;0.0575466;0.0568181;0.05617763;0.05554248;0.05455509;0.05364281;0.05291949;0.05257333;0.05280544;0.05375202;0.05547;0.05812989;0.06168257;0.06623607;0.07145225;0.07705372;0.08266909;0.08807319;0.09298258;0.09769259;0.1025804;0.1089741;0.1179169;0.1298505;0.1448793;0.1625524;0.1815452;0.2000925;0.2166138;0.2298816;0.2393964;0.2457111;0.2498938;0.2523385;0.2535464;0.2538171;0.2529663;0.2515725;0.2498534;0.2474523;0.2447857;0.2422211;0.2393836;0.2368398;0.2346913;0.2328033;0.2312694;0.2302068;0.2292168;0.2283627;0.2275257;0.2263083;0.2246236;0.2224963;0.2197349;0.2165302;0.2129533;0.2089202;0.2047978;0.2007301;0.1967113;0.1934288;0.1912638;0.1882909;0.1854819;0.1831934;0.181427;0.1805498;0.1804773
0.08674265;0.0767712;0.06684349;0.05562111;0.04749066;0.04177531;0.03695017;0.0345025;0.03393881;0.03278271;0.03246222;0.03242511;0.03264563;0.03278794;0.03246924;0.03212559;0.03169805;0.03087667;0.03021041;0.02958701;0.02870781;0.02794672;0.02692347;0.02554211;0.02433223;0.02350898;0.02268947;0.022393;0.0221015;0.02201383;0.02207847;0.02195845;0.02236864;0.02207854;0.02302439;0.02406438;0.02740748;0.03106257;0.03638288;0.04229754;0.04897385;0.05484783;0.06017834;0.06508404;0.06971475;0.07391242;0.07696306;0.07856153;0.07848979;0.07693066;0.07414535;0.07066635;0.06721615;0.06434796;0.0623128;0.06077514;0.05958955;0.05880488;0.05823655;0.05751703;0.05656791;0.05560431;0.05493605;0.05455991;0.05478826;0.05575656;0.05749334;0.06020585;0.06382503;0.06843216;0.07371328;0.07945214;0.08513957;0.09065699;0.0957022;0.1004207;0.1054198;0.1119095;0.1209159;0.1330424;0.1481564;0.1659382;0.1850529;0.2035267;0.2200511;0.2332856;0.2427979;0.2490682;0.2532165;0.2556559;0.2568586;0.2571507;0.2563104;0.2549606;0.2532392;0.2508808;0.2482894;0.2457177;0.242947;0.2403904;0.2383032;0.2364227;0.234915;0.2338842;0.2329186;0.2320644;0.2312227;0.2300177;0.2283208;0.2262109;0.2234882;0.220258;0.2167224;0.2126956;0.2085437;0.2044882;0.2004782;0.1971969;0.1950082;0.1920271;0.1892227;0.1868909;0.1850262;0.1839862;0.1837684
0.08566565;0.07554504;0.06580029;0.05461919;0.04669032;0.04095374;0.03598958;0.03370894;0.03300351;0.03187061;0.03170115;0.03172386;0.03196746;0.03213744;0.03175851;0.03138296;0.03105318;0.03027227;0.02963249;0.02888708;0.0279927;0.02725565;0.02624138;0.02485374;0.02367358;0.02280612;0.02209261;0.02178727;0.02155089;0.02142697;0.02142337;0.02128132;0.02169101;0.0215321;0.02240713;0.02351601;0.02678439;0.03045087;0.03577952;0.0417027;0.04830821;0.05422699;0.05949251;0.06437194;0.06897745;0.07304706;0.07610595;0.07769023;0.07760848;0.076157;0.07337678;0.0699434;0.06649183;0.06364288;0.06166086;0.06008476;0.05894447;0.05825195;0.05762352;0.0569699;0.05598805;0.0550385;0.05436497;0.0540232;0.05428462;0.05517989;0.05697269;0.05962886;0.06323933;0.06779557;0.07302316;0.07867384;0.08430399;0.08976279;0.09471875;0.09938265;0.1043073;0.1106932;0.1196055;0.1315406;0.146414;0.1639627;0.1828481;0.2011779;0.2175139;0.2306335;0.240059;0.2463019;0.2504169;0.252874;0.2540462;0.2542764;0.2535004;0.2521288;0.2503775;0.2480426;0.2454376;0.2428991;0.2401186;0.2375966;0.2354862;0.2336226;0.2321533;0.2310801;0.2301278;0.2293058;0.2284456;0.2272781;0.2255659;0.2234766;0.2207617;0.217575;0.2140725;0.2100637;0.2059668;0.2019335;0.1979774;0.194742;0.1925908;0.189648;0.1868951;0.1846199;0.1828221;0.1819072;0.181799
0.08563169;0.07521071;0.06564429;0.0541903;0.04640966;0.04059796;0.03561565;0.03337186;0.03258963;0.03143166;0.03121814;0.03122446;0.03148817;0.0316748;0.03132984;0.03092831;0.03050579;0.02960816;0.02897088;0.02834159;0.02746606;0.0266397;0.02564003;0.02422316;0.02305409;0.02212679;0.02138025;0.02110421;0.02076735;0.02068465;0.0207427;0.02057946;0.02096799;0.02075213;0.02169034;0.02282049;0.02606471;0.02970398;0.03508179;0.04101279;0.0475515;0.05343822;0.0587861;0.06367964;0.0682206;0.07236905;0.0754775;0.07707824;0.0769527;0.07541896;0.07268912;0.06916179;0.06572883;0.0629364;0.06086639;0.05931243;0.05816706;0.05742124;0.05681418;0.05611209;0.05515589;0.05422769;0.05353234;0.05316978;0.05340903;0.05434311;0.05609086;0.0587816;0.06240287;0.06698692;0.07227555;0.07794885;0.08363799;0.08909782;0.09413341;0.0988754;0.1038754;0.1103343;0.1193757;0.1314823;0.1466362;0.1644188;0.1835947;0.2022419;0.2188173;0.2321063;0.2416441;0.2479885;0.2521893;0.2546469;0.2558764;0.2561297;0.2552904;0.253902;0.252187;0.2497933;0.2471491;0.2445786;0.2417265;0.239194;0.2370732;0.2351808;0.2336737;0.2326135;0.2316509;0.2307957;0.2299366;0.2287334;0.2270394;0.2249704;0.2221436;0.2189354;0.2153587;0.211327;0.2071531;0.2030753;0.1990499;0.1957489;0.1935563;0.1905356;0.1877319;0.185386;0.1835392;0.1825282;0.1823606
0.077836;0.0684275;0.05948097;0.04923633;0.04182095;0.03658502;0.03193598;0.02988032;0.02916439;0.02788365;0.02750736;0.02730464;0.02741809;0.02743556;0.0270494;0.02682776;0.02641972;0.02563792;0.02512064;0.02457171;0.02386048;0.02320941;0.0223246;0.0210538;0.02006026;0.01922722;0.01860676;0.0183186;0.01818775;0.01805739;0.01812504;0.01800325;0.01839659;0.01808238;0.01881687;0.01980036;0.02260071;0.02571607;0.03024907;0.03545314;0.0413511;0.04646568;0.05116626;0.05555467;0.05967222;0.06347519;0.06628378;0.06775008;0.06771503;0.06635253;0.06379107;0.06062378;0.05747178;0.0549188;0.0530272;0.05166791;0.05062744;0.04991714;0.04933297;0.04868495;0.04782233;0.04695482;0.04632114;0.0459794;0.04619715;0.04701521;0.04858574;0.05103201;0.05428111;0.05842221;0.06324985;0.06841244;0.07356457;0.0785529;0.08314899;0.0874821;0.09206463;0.09798354;0.1063647;0.1175826;0.1317373;0.1484434;0.1664946;0.1841062;0.1999259;0.2126468;0.2217377;0.2278668;0.2318477;0.2342195;0.2353939;0.2356132;0.2348198;0.2334138;0.2316999;0.2293526;0.2267598;0.2242648;0.2215536;0.219109;0.2171003;0.2153214;0.2139022;0.2128965;0.2120085;0.2112076;0.2104129;0.2092905;0.2076355;0.2056354;0.2029715;0.1998911;0.1964588;0.1925862;0.1885957;0.1846836;0.180821;0.1776715;0.1756172;0.1727354;0.1700381;0.1677607;0.1659812;0.1650174;0.164875
0.07541274;0.06631427;0.05748127;0.04749177;0.04033248;0.03516937;0.03082165;0.02864224;0.02793395;0.0267254;0.02631103;0.02605335;0.026135;0.02616441;0.02580153;0.0255083;0.02508656;0.02449662;0.02395972;0.02336232;0.02273931;0.02206819;0.02126838;0.02008645;0.01907894;0.01841271;0.01777316;0.01748396;0.01730352;0.01722156;0.01734717;0.01716334;0.01751245;0.01726433;0.01801274;0.01889758;0.02164586;0.02458444;0.02898753;0.03398586;0.03967876;0.04470729;0.04918326;0.05335088;0.05732439;0.06095722;0.06374226;0.06513221;0.06506999;0.06376296;0.06134136;0.05831229;0.05526436;0.05278335;0.05096051;0.04963366;0.0486234;0.04799297;0.04741055;0.0468427;0.04596346;0.04516779;0.04455804;0.04424262;0.04443893;0.04525359;0.04679787;0.04913422;0.05225927;0.05627316;0.06087237;0.06584611;0.0708228;0.07561495;0.08002895;0.08419796;0.08856671;0.09432063;0.102334;0.1131598;0.1267794;0.1428906;0.1604273;0.1775604;0.1928943;0.205305;0.2142749;0.2202275;0.2241343;0.2264747;0.2276357;0.2278719;0.2270723;0.2256961;0.2240131;0.2217208;0.2191735;0.2167254;0.214091;0.2117005;0.2097328;0.2080249;0.2066419;0.2056699;0.2048282;0.2040518;0.2032647;0.2021827;0.2005909;0.1985936;0.1960338;0.1930013;0.1896704;0.1858875;0.1820276;0.1782172;0.1744625;0.1714175;0.1694237;0.1666685;0.1640605;0.1618711;0.1601329;0.1592102;0.15908
0.07818452;0.06869516;0.0596871;0.0496502;0.04271574;0.03751338;0.03293563;0.03074201;0.02994296;0.02884172;0.02829736;0.02803499;0.02812044;0.02819427;0.0277538;0.02737785;0.02710201;0.02637606;0.02595893;0.025432;0.02467813;0.02400803;0.02319147;0.02197758;0.0209924;0.02025861;0.01964517;0.0194093;0.01923336;0.01919021;0.01924521;0.01904495;0.01941033;0.01914425;0.01988855;0.02079307;0.02352213;0.02646975;0.03091816;0.03589562;0.04156209;0.04656179;0.05111757;0.05533149;0.05927226;0.06297904;0.06568799;0.06713159;0.06705386;0.06572505;0.06327642;0.06017737;0.05715875;0.05467045;0.05287162;0.05148776;0.05050262;0.04981927;0.04923711;0.04863845;0.04773127;0.04693119;0.04632008;0.04601826;0.04619456;0.04703122;0.04852347;0.05088997;0.05404871;0.05808103;0.06274372;0.06776463;0.07276855;0.07762668;0.08208213;0.08630871;0.09071087;0.09651091;0.1046682;0.1156379;0.1294936;0.1459065;0.1637255;0.1811943;0.1968294;0.2094614;0.2185757;0.2246234;0.228641;0.2310143;0.2321677;0.2324188;0.2316176;0.2302265;0.2284945;0.2261617;0.223566;0.2210766;0.2183826;0.2159476;0.213939;0.2121486;0.2107517;0.2097867;0.2088983;0.2081203;0.2073249;0.2062012;0.2045949;0.2025608;0.199952;0.1968589;0.1934547;0.1896179;0.1856748;0.1817966;0.1779649;0.1748645;0.1728406;0.1700148;0.1673656;0.1651858;0.1634977;0.1626965;0.1626493
0.0766352;0.06707093;0.05845428;0.04824993;0.04101993;0.03584125;0.03147468;0.02913103;0.02845464;0.0273737;0.02686085;0.02659309;0.02669662;0.02674943;0.02635485;0.02605782;0.02571695;0.0250149;0.02449019;0.02390831;0.02322626;0.0225879;0.02176792;0.02059045;0.01958853;0.01884739;0.01823288;0.01800036;0.01781116;0.01773972;0.01780967;0.01765442;0.01802813;0.01776111;0.018494;0.01936721;0.02217676;0.02506787;0.02957733;0.03464442;0.04036669;0.04534766;0.04988132;0.05418196;0.05821437;0.06187297;0.06460297;0.06600466;0.0659511;0.06471124;0.06224238;0.05911513;0.05609842;0.05364471;0.05182441;0.05044306;0.04943573;0.04873288;0.04822697;0.04761074;0.04673238;0.04591466;0.04530924;0.04497108;0.04521178;0.04602941;0.0475823;0.04996248;0.05313429;0.0571767;0.06184497;0.06687164;0.07191624;0.07677672;0.08125637;0.08548794;0.08992787;0.09574206;0.1039071;0.11486;0.1286772;0.1450112;0.162766;0.1800764;0.1955912;0.2081491;0.2172006;0.2231948;0.2271676;0.2295207;0.2306668;0.2309579;0.2301691;0.228774;0.2270761;0.2247914;0.2222266;0.2197791;0.2171286;0.2146999;0.2127147;0.2109756;0.2095917;0.2085998;0.2077593;0.2069801;0.2062095;0.2050695;0.2034652;0.2014877;0.1988646;0.1958334;0.1924668;0.1886462;0.1847448;0.1808942;0.1771054;0.1740251;0.1720356;0.1692328;0.1666084;0.1644288;0.162702;0.1618326;0.1617485
0.07753479;0.06837735;0.05938005;0.04924906;0.04197065;0.0366297;0.03217149;0.03003998;0.02927897;0.02799217;0.02761417;0.02746036;0.02755035;0.02760551;0.02726527;0.02701125;0.02669315;0.02594129;0.02538128;0.02479001;0.02413123;0.02345379;0.02262383;0.02144618;0.02040108;0.01972573;0.01908518;0.01887557;0.0186896;0.01860083;0.01872516;0.01857755;0.01892794;0.01875322;0.0194652;0.02038673;0.02312742;0.02612053;0.03064935;0.03577808;0.04152082;0.04663111;0.05125834;0.05557586;0.05962051;0.06335697;0.06612924;0.06756366;0.06755979;0.06617273;0.0637345;0.06059398;0.05756087;0.05506026;0.05322137;0.05185384;0.05085899;0.05021482;0.04964665;0.049013;0.04818716;0.04737397;0.04677279;0.04645887;0.04666583;0.04753359;0.04907654;0.05151219;0.05471867;0.05883719;0.06355073;0.06865956;0.07373427;0.07864545;0.0831676;0.0874427;0.09193451;0.09781424;0.1060083;0.1170837;0.1310333;0.1474235;0.165181;0.1824622;0.1979424;0.210475;0.2194387;0.2254001;0.229427;0.2317517;0.2329083;0.2331331;0.2323968;0.2310235;0.2293651;0.2271043;0.2245773;0.2221412;0.2195105;0.2171218;0.2151596;0.2134154;0.2120717;0.2110907;0.2102285;0.2094509;0.2086887;0.2075751;0.2059845;0.2039931;0.2014252;0.198384;0.1950437;0.1912377;0.1873257;0.1834874;0.1797048;0.1766233;0.1746263;0.1718186;0.1691476;0.1669293;0.165168;0.164203;0.1640418
0.08568933;0.07556427;0.06625997;0.05559636;0.04785129;0.04241107;0.03758405;0.03523055;0.0345493;0.03335758;0.03285151;0.03264502;0.0327281;0.03270129;0.03230982;0.03203643;0.03157895;0.03073239;0.03010017;0.02946649;0.02868114;0.027892;0.02698479;0.0256452;0.02454532;0.02369807;0.02302881;0.02275166;0.0224613;0.02239566;0.02244985;0.02235185;0.02271456;0.02244706;0.0232904;0.02423743;0.02724441;0.03047841;0.03539314;0.04090944;0.04714953;0.05263423;0.05758769;0.0620947;0.06643804;0.07036885;0.07333735;0.0748096;0.07470433;0.07328645;0.07062771;0.06725471;0.06391478;0.06123919;0.05925259;0.05777323;0.05669482;0.05596507;0.05529772;0.05466516;0.05374939;0.05285919;0.05221948;0.05191392;0.05211975;0.0530599;0.05477054;0.05738057;0.06086529;0.06527416;0.070344;0.07579978;0.08122909;0.08650319;0.09134655;0.09593405;0.1008419;0.1072807;0.1162542;0.128343;0.1434706;0.1611677;0.1802051;0.198644;0.2151435;0.2283535;0.2378903;0.2441935;0.2483941;0.2508615;0.2520838;0.2523233;0.2514396;0.2499418;0.2481088;0.2456129;0.2428574;0.2402537;0.2373682;0.234778;0.232627;0.2306955;0.2292126;0.2281591;0.227166;0.2262883;0.2254258;0.2242223;0.2225143;0.2203834;0.217601;0.2143567;0.2107745;0.2066698;0.2024983;0.198385;0.1943257;0.1910398;0.1888351;0.1858434;0.1830474;0.1807468;0.179001;0.1782219;0.1782182
0.08490615;0.07496555;0.0657374;0.05498221;0.04740449;0.0419784;0.03726655;0.03509102;0.03435494;0.03318261;0.03281431;0.03265546;0.03273438;0.03275114;0.03237149;0.03203974;0.03163889;0.03091593;0.03023327;0.0296078;0.02897065;0.02812592;0.02728477;0.0259589;0.02482024;0.0240154;0.02332645;0.02306908;0.02286381;0.02280859;0.0228095;0.02269885;0.02305638;0.02289653;0.0236065;0.02463009;0.027586;0.03085464;0.03576322;0.04127494;0.04743743;0.05288006;0.05782922;0.06236797;0.06667559;0.07060087;0.07349664;0.07499845;0.07488971;0.07343804;0.07082676;0.06751401;0.06428147;0.06162703;0.05970934;0.05824872;0.05720855;0.05648991;0.05590771;0.05525813;0.05439602;0.05348954;0.05285238;0.05259703;0.05280797;0.05373495;0.05546928;0.05805046;0.06150465;0.06588663;0.07089569;0.07625002;0.08160409;0.08678536;0.09155155;0.0961034;0.1008982;0.1071886;0.1159865;0.1277772;0.1425077;0.1597477;0.1782792;0.1962335;0.2122545;0.2251722;0.2344885;0.2406866;0.2448449;0.2473134;0.248497;0.248775;0.2479512;0.2465167;0.2447807;0.2423744;0.2396955;0.2371844;0.2344047;0.2319366;0.2298528;0.2280264;0.2265198;0.2254878;0.2245501;0.223673;0.2228495;0.2216669;0.2200049;0.2179374;0.215232;0.2120861;0.2086193;0.204616;0.2005463;0.1965279;0.1925732;0.1893568;0.1872122;0.1842963;0.1815224;0.1792351;0.1774521;0.1765037;0.1763688
0.08525998;0.07557156;0.06610639;0.05529493;0.04781552;0.04242679;0.03744705;0.03532018;0.03459059;0.03330259;0.03298795;0.03280698;0.0328759;0.03296958;0.03259033;0.03222893;0.0318878;0.03113019;0.03050129;0.02988433;0.02906581;0.02839326;0.02751197;0.02616683;0.02509524;0.02424398;0.02357335;0.02327764;0.02309139;0.02302274;0.02316075;0.02296325;0.02334326;0.02305349;0.02379513;0.02473015;0.02776496;0.03098963;0.03585853;0.04137133;0.04749554;0.05286327;0.05773559;0.0623135;0.06655093;0.07044327;0.0733392;0.07480952;0.07470439;0.07322504;0.07065147;0.06733868;0.06411485;0.06146271;0.05955187;0.0581187;0.05705618;0.05634104;0.05573751;0.05509199;0.05418783;0.0533087;0.05270013;0.05238178;0.05265959;0.0535681;0.05524868;0.05785169;0.06131029;0.06567629;0.07068712;0.07604638;0.08139908;0.08655944;0.09132747;0.09587771;0.1007107;0.1069795;0.1158529;0.1277366;0.1426078;0.159974;0.1786384;0.1967501;0.2128468;0.2258353;0.2351983;0.2414776;0.2456639;0.2481068;0.2493385;0.2496215;0.2488198;0.2473412;0.2455878;0.2431651;0.2405025;0.2379613;0.2351971;0.232665;0.2305851;0.2287347;0.2272815;0.2262536;0.2252908;0.2244509;0.2236062;0.2224439;0.2207732;0.2187108;0.2159805;0.212806;0.2092907;0.2052764;0.2011455;0.1971203;0.1931192;0.1898606;0.1876909;0.1847384;0.1819388;0.1796743;0.1779095;0.1770784;0.177033
0.08318393;0.07315158;0.06433004;0.05351575;0.04630405;0.0407401;0.03615659;0.03379466;0.03326219;0.03206597;0.03166799;0.03150364;0.03153148;0.03155268;0.03118823;0.03085502;0.03047993;0.02972804;0.02918326;0.02865984;0.02775147;0.0269607;0.02610544;0.02482787;0.02370921;0.02290193;0.02222488;0.0219159;0.02168852;0.0216048;0.02163767;0.02148801;0.02187939;0.02163602;0.02241743;0.02339434;0.02634575;0.02955554;0.03440813;0.0398222;0.04592834;0.05124251;0.0561011;0.06059493;0.06475027;0.06863368;0.07149981;0.07290868;0.0728166;0.07141713;0.06881177;0.06553156;0.06233234;0.05971381;0.0577741;0.05639436;0.055302;0.05458679;0.05402919;0.05333838;0.05243982;0.05160832;0.05097721;0.05064325;0.05089835;0.05182423;0.05347376;0.05602739;0.05943155;0.06372092;0.06862884;0.07392063;0.0791692;0.08426128;0.08891232;0.09338512;0.09807064;0.1042686;0.1129266;0.1245285;0.1390738;0.1560628;0.1743651;0.1920896;0.2079235;0.2206935;0.2299033;0.236047;0.2401689;0.2425837;0.2437982;0.244078;0.2432755;0.2418121;0.2400725;0.2377112;0.2350626;0.2325438;0.2298088;0.2273073;0.2252486;0.2234182;0.2219515;0.220912;0.2199542;0.2191314;0.2182885;0.2171375;0.2154517;0.213427;0.2107197;0.2076097;0.2041302;0.2001807;0.1961356;0.1921486;0.1882469;0.1850231;0.182878;0.179954;0.1772024;0.1749275;0.173103;0.1720961;0.1719263
0.08323207;0.07357306;0.06407873;0.05341169;0.04581419;0.04049286;0.03562916;0.03335463;0.03266839;0.03152089;0.03101519;0.0307849;0.03095793;0.0309757;0.03040057;0.03011893;0.02981759;0.02901693;0.02844993;0.02782606;0.02704265;0.02636702;0.02535883;0.02410345;0.02297703;0.02222934;0.02153034;0.02124499;0.02104702;0.02097656;0.02099011;0.02085802;0.02123623;0.02100587;0.02175602;0.02271927;0.02568662;0.02890666;0.0337687;0.03922886;0.04534101;0.05069848;0.05560002;0.06013805;0.06437071;0.06823118;0.07109326;0.07261791;0.0725334;0.0710502;0.06845362;0.06514928;0.06193739;0.05924178;0.05734627;0.05589469;0.05481639;0.05411387;0.05351904;0.05286732;0.05200161;0.0510691;0.05045473;0.0501323;0.05037851;0.05131414;0.05297782;0.05557563;0.05898785;0.06332143;0.06828867;0.07368028;0.07898422;0.08414955;0.0888951;0.09343928;0.09818109;0.1044904;0.1132867;0.1250699;0.1398298;0.1571033;0.175623;0.1936236;0.2096553;0.2225713;0.2318906;0.2381043;0.2422452;0.244692;0.2458892;0.2461367;0.2453114;0.2438954;0.2421062;0.2396838;0.2370252;0.2344715;0.2316791;0.2291779;0.2270878;0.2252436;0.2237625;0.2227042;0.2217625;0.2209034;0.2200596;0.2188531;0.2171799;0.2151174;0.2123911;0.2092525;0.2057105;0.2017265;0.1976282;0.1935816;0.1896236;0.1863797;0.1842139;0.1812656;0.1784931;0.1761862;0.1744147;0.1734857;0.1733785
0.06590939;0.05718516;0.0486172;0.03906817;0.03226586;0.0275115;0.02316307;0.02112633;0.02036044;0.01921739;0.01885677;0.01865927;0.01875747;0.01879076;0.0184715;0.01820544;0.01787138;0.0173524;0.01682098;0.01642753;0.01581321;0.01519188;0.01442408;0.01334651;0.01238874;0.0116898;0.01111262;0.01095611;0.01086843;0.01083973;0.0108565;0.01078889;0.01111014;0.01098602;0.01169772;0.01266344;0.01537503;0.01833784;0.02261755;0.02750124;0.03289034;0.03768908;0.04194745;0.04597346;0.04962844;0.05306966;0.05561773;0.05692973;0.05693715;0.05567081;0.05343991;0.05062297;0.04778866;0.04556929;0.04388425;0.04267766;0.04175601;0.04117478;0.04074812;0.04021601;0.03948257;0.03876114;0.03823736;0.03800403;0.03826087;0.03907419;0.04053817;0.04276116;0.04571743;0.04942859;0.05375841;0.05838929;0.06301075;0.06746256;0.07159;0.07552667;0.07967503;0.08514505;0.09278464;0.1030843;0.1160576;0.1313636;0.1479963;0.1642193;0.1788103;0.1906503;0.1992047;0.2049371;0.2087557;0.2110524;0.2121859;0.2124476;0.2117522;0.2103939;0.2088073;0.2065862;0.2041808;0.201811;0.1992609;0.1969539;0.1950353;0.1933627;0.1919831;0.1910202;0.190177;0.1893689;0.1886038;0.1875238;0.1859799;0.1840752;0.1815857;0.178682;0.1754661;0.1718588;0.1681194;0.1644661;0.1608737;0.1579694;0.1561235;0.1534734;0.1509968;0.1489445;0.1473583;0.146625;0.1466258
0.06567708;0.0568168;0.04851534;0.03897148;0.03193577;0.02706078;0.02281667;0.02069139;0.01999851;0.01890869;0.0185552;0.01842659;0.0185144;0.0185911;0.01834338;0.0180923;0.01786199;0.01724998;0.01675849;0.01642855;0.01577935;0.01512008;0.01443665;0.01338026;0.01238322;0.01173538;0.01112826;0.01095121;0.0108813;0.01079504;0.01092211;0.0108235;0.0112243;0.01109509;0.01184367;0.01280497;0.01550613;0.01839229;0.02274679;0.02763015;0.03305503;0.03774283;0.04203217;0.0460578;0.04977862;0.05318884;0.05572615;0.05710309;0.05705318;0.05582922;0.05360252;0.05074085;0.0480183;0.04576251;0.0441528;0.04293667;0.04208209;0.04153905;0.04107882;0.04055978;0.03981657;0.03912852;0.03863821;0.03841268;0.03868037;0.0394838;0.04096263;0.0431757;0.04612849;0.04985426;0.05416317;0.05875826;0.06335773;0.06778768;0.07189497;0.07582685;0.07993938;0.08535535;0.09290905;0.1030809;0.1159058;0.1310172;0.1473472;0.1632647;0.1776024;0.1891483;0.197526;0.2031529;0.2069315;0.2091785;0.2102844;0.2105273;0.2098591;0.2085955;0.2070485;0.2049168;0.2025801;0.2002743;0.1978062;0.1955592;0.1936897;0.1920277;0.1907258;0.1897651;0.1889424;0.1881779;0.1874263;0.186389;0.1848443;0.1829849;0.1805528;0.1777065;0.1745601;0.1710365;0.1673836;0.163838;0.1602877;0.1574353;0.1556539;0.1530849;0.1506719;0.1487076;0.1472291;0.1466579;0.1467876
0.0665234;0.05769271;0.04981296;0.04018614;0.03354707;0.02875326;0.02444204;0.02243363;0.02189538;0.02083168;0.02037415;0.02010758;0.02020489;0.02025992;0.01995177;0.01977921;0.01955402;0.01899491;0.01851058;0.0180414;0.01743364;0.01696916;0.01624762;0.01504267;0.01418731;0.01350241;0.01301766;0.01284975;0.0126553;0.01263351;0.01275354;0.01271317;0.01307985;0.01290266;0.01365038;0.01458495;0.01723983;0.0200599;0.02435146;0.02910591;0.03436349;0.03903157;0.04323493;0.04713507;0.05077258;0.05405834;0.0565834;0.05787107;0.0578035;0.05667486;0.05451123;0.05174525;0.04904804;0.04684515;0.04528071;0.04408869;0.04320376;0.04270317;0.04221398;0.04177984;0.04109123;0.04037075;0.03988821;0.03969448;0.03993314;0.04073068;0.04218081;0.04437649;0.04727107;0.05090823;0.05509969;0.05961157;0.0640632;0.06843849;0.07241449;0.07623874;0.08027863;0.08557227;0.09296372;0.1029171;0.115474;0.1302886;0.1463078;0.1620144;0.1761356;0.1875728;0.1958725;0.2014335;0.2051558;0.2073732;0.2084869;0.2087248;0.2080388;0.2067844;0.2052429;0.2031139;0.2007849;0.1984921;0.1960451;0.1938137;0.1919759;0.1903675;0.189049;0.1881193;0.1872635;0.1865086;0.1857972;0.1847399;0.1832405;0.1813581;0.1789598;0.17614;0.173062;0.1695592;0.1659763;0.1624566;0.1589523;0.1561455;0.1544035;0.1518564;0.1494625;0.1474835;0.1459104;0.145136;0.145085
0.06691108;0.05816956;0.05011528;0.04060146;0.03392174;0.02930471;0.02522426;0.0233682;0.02262848;0.02152559;0.02107367;0.0209077;0.02109579;0.02116477;0.02074163;0.02058651;0.02039981;0.01971548;0.01936802;0.01899849;0.01839535;0.01787076;0.0171152;0.01601441;0.01512499;0.01453251;0.01396876;0.01383305;0.01367552;0.0136315;0.01377941;0.01363538;0.01404967;0.01388319;0.01461013;0.01559249;0.01817807;0.02106;0.02529674;0.03003948;0.03528465;0.03990411;0.04405727;0.04797806;0.05160368;0.05487565;0.05735198;0.05861907;0.05858965;0.0573905;0.0552836;0.05258395;0.04989066;0.04774439;0.04617868;0.04506646;0.04417967;0.04370063;0.0432335;0.04276932;0.04205561;0.04141862;0.0409508;0.04070788;0.04094357;0.04177973;0.04322778;0.04540622;0.04828545;0.05189173;0.05603937;0.06048939;0.06489979;0.06918108;0.07313312;0.07689867;0.08086563;0.08608992;0.0933245;0.1031192;0.1154366;0.1299443;0.1456036;0.1609858;0.1747533;0.1858997;0.1940046;0.1994628;0.2031118;0.205283;0.2063789;0.2066337;0.2059764;0.204768;0.2032543;0.2012005;0.1988814;0.1967051;0.1943111;0.1921426;0.1903462;0.1887793;0.187499;0.1865925;0.1858033;0.1850754;0.1843485;0.1833129;0.1818453;0.1800222;0.1776681;0.1749056;0.171859;0.1684414;0.1649262;0.1614735;0.1580525;0.1553015;0.1535801;0.151065;0.1486784;0.1466872;0.1450789;0.1441994;0.1440613
0.06662858;0.05829025;0.05031329;0.04116402;0.03458868;0.02996905;0.02586964;0.02383637;0.02321796;0.0221572;0.02175916;0.0215912;0.02174386;0.02185962;0.02158808;0.02133102;0.02109254;0.02058022;0.02010651;0.01979621;0.01920211;0.01869657;0.01808203;0.01693996;0.01607729;0.01550996;0.01494429;0.01475825;0.01462256;0.01463755;0.01472536;0.01467113;0.01509307;0.01493486;0.01566601;0.01649176;0.01917356;0.02192233;0.02614726;0.03077163;0.03593065;0.040505;0.04454264;0.04838614;0.0519331;0.05516675;0.05759558;0.05892346;0.05888793;0.0577944;0.05565715;0.05299064;0.05037417;0.0482669;0.04671361;0.04563579;0.04475794;0.04426215;0.04385156;0.0433693;0.04270596;0.04204961;0.04158817;0.04138871;0.04164938;0.04246948;0.04388722;0.04605225;0.04888596;0.05243098;0.05655719;0.06097018;0.06530297;0.06956194;0.07345706;0.07718183;0.08109502;0.08624706;0.09343117;0.1031159;0.1153037;0.129637;0.1451531;0.1602945;0.1739365;0.1849968;0.1930044;0.1983698;0.201937;0.2041091;0.2052056;0.2054626;0.2048119;0.2035743;0.2020719;0.2000437;0.1977967;0.1955907;0.1932406;0.1911394;0.1893714;0.1878202;0.1865704;0.18569;0.1849022;0.1842281;0.1835096;0.1824992;0.1810552;0.1792567;0.1769427;0.1742336;0.1712472;0.1678553;0.1643932;0.1609993;0.1576225;0.1549285;0.1532864;0.1508506;0.1484976;0.1465257;0.1449816;0.144162;0.1440704
0.06504767;0.05598808;0.04766987;0.03757998;0.03090026;0.02586409;0.02141462;0.01951221;0.01876016;0.01762006;0.01731635;0.01718296;0.01734416;0.01738818;0.01706502;0.01684224;0.01650335;0.01594123;0.0153974;0.0149844;0.01439996;0.01377871;0.01294094;0.01177786;0.01077915;0.01010687;0.009499427;0.00930567;0.009151116;0.009093321;0.009222064;0.009108697;0.009567828;0.009407188;0.0101846;0.01121567;0.01400461;0.01706359;0.02154854;0.02653852;0.03206182;0.03691325;0.04129428;0.04541849;0.04920999;0.0526361;0.05522207;0.05657992;0.05648953;0.0552661;0.05296619;0.05014425;0.04732406;0.04503758;0.04340563;0.04219548;0.04131391;0.04075312;0.0402489;0.03980615;0.03904435;0.03833043;0.03782003;0.03755902;0.03780529;0.03863848;0.04009791;0.0423535;0.04533121;0.04910869;0.05347056;0.05812372;0.06278456;0.067334;0.07147811;0.07545961;0.07963835;0.08510499;0.09277888;0.1031103;0.1161797;0.1315806;0.1482777;0.1646539;0.1793547;0.1913093;0.1999525;0.2057512;0.2096503;0.2119682;0.2131741;0.2134533;0.2127692;0.2114813;0.2099161;0.2077539;0.20536;0.2030047;0.2004451;0.1981506;0.1962126;0.1944808;0.1930881;0.192119;0.191242;0.190443;0.1896754;0.1885456;0.1869973;0.1850613;0.1825569;0.1796365;0.1764021;0.1727371;0.168992;0.16531;0.1617444;0.1588321;0.1569161;0.1542392;0.1517548;0.1497396;0.1481902;0.1475514;0.1476122
