1100	1105	1110	1115	1120	1125	1130	1135	1140	1145	1150	1155	1160	1165	1170	1175	1180	1185	1190	1195	1200	1205	1210	1215	1220	1225	1230	1235	1240	1245	1250	1255	1260	1265	1270	1275	1280	1285	1290	1295	1301	1306	1311	1316	1321	1326	1331	1336	1341	1346	1351	1356	1361	1366	1371	1376	1381	1386	1391	1396	1401	1406	1411	1416	1421	1426	1431	1436	1441	1446	1451	1456	1461	1466	1471	1476	1481	1486	1491	1496	1502	1507	1512	1517	1522	1527	1532	1537	1542	1547	1552	1557	1562	1567	1572	1577	1582	1587	1592	1597	1602	1607	1612	1617	1622	1627	1632	1637	1642	1647	1652	1657	1662	1667	1672	1677	1682	1687	1692	1697	1703	1708	1713	1718	1723	1728	1733	1738	1743	1748	1753	1758	1763	1768	1773	1778	1783	1788	1793	1798	1803	1808	1813	1818	1823	1828	1833	1838	1843	1848	1853	1858	1863	1868	1873	1878	1883	1888	1893	1898	1904	1909	1914	1919	1924	1929	1934	1939	1944	1949	1954	1959	1964	1969	1974	1979	1984	1989	1994	1999	2004	2009	2014	2019	2024	2029	2034	2039	2044	2049	2054	2059	2064	2069	2074	2079	2084	2089	2094	2100
0.520925	0.521506	0.525414	0.526129	0.528560	0.530884	0.531016	0.535951	0.536547	0.536577	0.534654	0.542147	0.545805	0.544627	0.552448	0.549099	0.552632	0.554671	0.555323	0.560492	0.560712	0.568033	0.565867	0.569648	0.572999	0.575248	0.573597	0.577739	0.583678	0.587259	0.589642	0.590090	0.590690	0.590400	0.599152	0.601481	0.600946	0.604963	0.603992	0.611754	0.611995	0.612560	0.615464	0.619345	0.622303	0.623312	0.622231	0.625492	0.627604	0.628818	0.631896	0.632511	0.641017	0.637679	0.637209	0.640977	0.646671	0.647380	0.649137	0.650186	0.653287	0.660362	0.655758	0.659361	0.660506	0.666587	0.661284	0.669036	0.671357	0.674183	0.669436	0.671381	0.676816	0.674254	0.680154	0.674776	0.681722	0.684047	0.685309	0.682947	0.694204	0.687388	0.692509	0.693876	0.694682	0.698874	0.695404	0.695826	0.697846	0.699411	0.703604	0.705713	0.705456	0.701599	0.705070	0.708241	0.707714	0.704196	0.710221	0.716494	0.711693	0.710401	0.712592	0.718078	0.716513	0.718535	0.716143	0.715409	0.720374	0.725747	0.717549	0.719939	0.722801	0.717242	0.721129	0.722579	0.728034	0.728780	0.726569	0.725118	0.728043	0.728161	0.729242	0.730467	0.730231	0.725882	0.731365	0.727887	0.727964	0.725563	0.729482	0.725158	0.725383	0.726251	0.722039	0.724217	0.716482	0.724278	0.721311	0.726059	0.723953	0.721806	0.714934	0.720805	0.719769	0.715131	0.714714	0.714929	0.715832	0.712162	0.707184	0.710191	0.702154	0.702128	0.700104	0.696910	0.692629	0.694889	0.694804	0.692231	0.686577	0.683500	0.681111	0.676849	0.669672	0.669828	0.668336	0.666353	0.659200	0.654174	0.650691	0.650699	0.644982	0.638332	0.637076	0.632718	0.629266	0.623492	0.617316	0.610655	0.610827	0.605709	0.600896	0.599134	0.593578	0.589487	0.588451	0.576451	0.575230	0.575472	0.568066	0.564540	0.562232	0.563161	0.556303	0.547393	0.547160	0.543721	0.540458	0.538500
0.574081	0.578903	0.581617	0.588424	0.592435	0.600712	0.603982	0.609766	0.615236	0.619221	0.626732	0.634860	0.641204	0.654175	0.654452	0.660443	0.663094	0.673008	0.680306	0.685203	0.694352	0.699811	0.703619	0.712623	0.719412	0.721143	0.728320	0.730801	0.737388	0.739813	0.741869	0.745300	0.751718	0.751254	0.753978	0.762203	0.764933	0.769346	0.768409	0.768434	0.768585	0.770777	0.769257	0.765783	0.767343	0.763442	0.765370	0.759995	0.754008	0.759995	0.752689	0.749836	0.743888	0.743979	0.734755	0.732341	0.734779	0.725405	0.722083	0.718638	0.712217	0.706891	0.700522	0.699130	0.692632	0.688181	0.682935	0.683981	0.676914	0.671347	0.664207	0.659954	0.659993	0.653760	0.651473	0.649939	0.645870	0.645818	0.640052	0.636706	0.641689	0.635434	0.637787	0.632475	0.630999	0.632277	0.637844	0.633408	0.638459	0.633226	0.633474	0.633630	0.633739	0.643041	0.639448	0.645255	0.644052	0.646318	0.650147	0.651482	0.652791	0.657741	0.657468	0.663134	0.669815	0.670753	0.662220	0.674548	0.671785	0.673531	0.674382	0.679083	0.681168	0.686879	0.685086	0.689039	0.685323	0.687946	0.693594	0.690584	0.691627	0.687710	0.690064	0.683342	0.692458	0.689326	0.689226	0.689820	0.689566	0.685776	0.680845	0.681443	0.678023	0.680299	0.675983	0.676291	0.667719	0.670600	0.664219	0.658861	0.656404	0.655074	0.652552	0.650274	0.646383	0.640649	0.639581	0.638840	0.633265	0.634537	0.628251	0.627229	0.621133	0.620543	0.613799	0.610749	0.606902	0.610008	0.600644	0.597850	0.598049	0.595543	0.587422	0.586305	0.582614	0.581416	0.572560	0.579630	0.574725	0.568588	0.567554	0.562701	0.563726	0.564774	0.556034	0.557173	0.552922	0.545510	0.545366	0.548132	0.545431	0.539873	0.541768	0.537849	0.534573	0.531992	0.536700	0.533176	0.532870	0.529259	0.532105	0.524302	0.524399	0.519676	0.519744	0.517194	0.519253	0.518456	0.513270	0.515074
0.535698	0.545027	0.543243	0.544024	0.553190	0.552471	0.556929	0.559042	0.563393	0.568639	0.565092	0.570004	0.570449	0.577861	0.581172	0.584530	0.589296	0.592402	0.598202	0.602180	0.605138	0.606398	0.611534	0.614469	0.612791	0.619388	0.625560	0.623621	0.631304	0.624495	0.630087	0.636322	0.633591	0.638343	0.636295	0.640473	0.643546	0.639646	0.641259	0.641055	0.640526	0.640838	0.644386	0.643902	0.640877	0.645042	0.637408	0.642873	0.636334	0.634424	0.635783	0.633828	0.628804	0.627689	0.628240	0.626439	0.627703	0.621052	0.621819	0.616108	0.612996	0.611720	0.611831	0.610984	0.611064	0.613339	0.609149	0.603884	0.605080	0.611780	0.602485	0.602261	0.603795	0.602882	0.604767	0.606589	0.604343	0.609992	0.611068	0.609346	0.615026	0.615342	0.619446	0.623265	0.618079	0.630485	0.634573	0.637725	0.642680	0.646371	0.656493	0.659079	0.658270	0.667732	0.671720	0.680600	0.682888	0.688881	0.696399	0.703232	0.709356	0.709843	0.721271	0.725546	0.730732	0.739173	0.742654	0.746392	0.752884	0.754294	0.759118	0.763717	0.763764	0.775582	0.776858	0.779876	0.787169	0.782695	0.789966	0.789004	0.789392	0.790443	0.790141	0.789119	0.792089	0.795209	0.789939	0.785940	0.786452	0.789836	0.780448	0.780297	0.775369	0.772837	0.773968	0.767684	0.761724	0.761820	0.758461	0.754181	0.746386	0.750274	0.742738	0.741441	0.732975	0.729108	0.724358	0.717883	0.711302	0.706445	0.701903	0.701105	0.692098	0.691606	0.678402	0.682063	0.673303	0.664458	0.664755	0.655660	0.650157	0.650741	0.643096	0.639865	0.632910	0.629996	0.632213	0.615920	0.618438	0.614721	0.610941	0.604879	0.599985	0.595194	0.588435	0.591751	0.584140	0.575399	0.575946	0.575593	0.568872	0.568983	0.563133	0.560366	0.556704	0.559859	0.548560	0.547857	0.541679	0.540586	0.541662	0.531533	0.532199	0.530663	0.530156	0.528806	0.524071	0.528059	0.519817	0.522416
0.538438	0.540058	0.543925	0.546540	0.548981	0.552208	0.553754	0.555383	0.554844	0.565275	0.567445	0.566734	0.574178	0.582569	0.582627	0.584869	0.588362	0.588732	0.592233	0.596506	0.603150	0.600431	0.605331	0.609102	0.611608	0.618810	0.621192	0.626591	0.629217	0.631634	0.631523	0.637373	0.634754	0.634707	0.641981	0.643707	0.645373	0.641456	0.646869	0.648345	0.649370	0.653297	0.650205	0.647668	0.647801	0.650699	0.651558	0.650420	0.646958	0.650532	0.651375	0.646614	0.645169	0.640946	0.646910	0.644100	0.640411	0.637685	0.639015	0.634699	0.632630	0.632087	0.637189	0.628931	0.628577	0.627927	0.624676	0.630680	0.628657	0.621145	0.620074	0.619739	0.618669	0.620642	0.615446	0.615586	0.618146	0.615146	0.618590	0.616398	0.616491	0.621904	0.617121	0.620846	0.624698	0.617765	0.625057	0.622054	0.624341	0.622506	0.623898	0.624331	0.636623	0.626948	0.636369	0.638342	0.639437	0.642262	0.643886	0.649130	0.644466	0.651581	0.651962	0.658129	0.659616	0.660748	0.667186	0.665681	0.668343	0.676704	0.678090	0.679751	0.683910	0.685739	0.686776	0.687145	0.689616	0.696704	0.695537	0.693234	0.701224	0.704190	0.706483	0.711605	0.714728	0.714141	0.713416	0.717079	0.716305	0.724780	0.724462	0.720685	0.729767	0.725886	0.731525	0.733211	0.731459	0.727123	0.729060	0.730150	0.727945	0.732519	0.733881	0.739354	0.732773	0.734924	0.731516	0.733592	0.728811	0.733663	0.734091	0.727637	0.727845	0.726332	0.724399	0.729796	0.718975	0.721717	0.720532	0.718914	0.713407	0.707923	0.703983	0.705326	0.699397	0.700639	0.700906	0.686738	0.686746	0.682314	0.679909	0.674948	0.674718	0.664793	0.662214	0.654694	0.654543	0.641692	0.636065	0.638283	0.631489	0.624559	0.619456	0.616952	0.607827	0.606012	0.603001	0.592944	0.592471	0.587946	0.585153	0.577441	0.575577	0.573174	0.561241	0.565093	0.556917	0.549962	0.551732	0.541288
0.537413	0.542472	0.544041	0.549082	0.557739	0.554480	0.561164	0.561644	0.562423	0.567741	0.571045	0.573811	0.579854	0.582547	0.591108	0.588890	0.598214	0.598576	0.605699	0.610381	0.617896	0.621355	0.623047	0.628414	0.635821	0.634752	0.644468	0.648227	0.653412	0.659005	0.659942	0.665020	0.666159	0.673924	0.678802	0.683588	0.686514	0.694676	0.696993	0.703426	0.706287	0.709982	0.716184	0.717434	0.724057	0.728565	0.735612	0.736945	0.743188	0.744911	0.749685	0.753419	0.752802	0.763596	0.761997	0.772063	0.772012	0.774751	0.778157	0.782893	0.782423	0.787759	0.782206	0.793162	0.792453	0.798628	0.800857	0.799838	0.801680	0.807737	0.808310	0.813170	0.806277	0.811696	0.812496	0.808331	0.812393	0.812938	0.813808	0.813370	0.815495	0.810134	0.813132	0.809728	0.810528	0.805858	0.813204	0.798172	0.800266	0.796717	0.792548	0.793971	0.793737	0.789066	0.778425	0.784499	0.771669	0.773268	0.769480	0.769906	0.765397	0.756197	0.754032	0.747238	0.749421	0.739314	0.739747	0.737179	0.728485	0.722471	0.723757	0.716212	0.718026	0.712004	0.700183	0.703072	0.700801	0.687033	0.690297	0.681320	0.677803	0.675840	0.669356	0.665011	0.658659	0.656310	0.652958	0.649839	0.645912	0.639399	0.639619	0.632416	0.628910	0.621522	0.622902	0.616877	0.613542	0.607365	0.606787	0.597934	0.599259	0.598248	0.594586	0.589415	0.580908	0.577100	0.577926	0.574661	0.576686	0.568108	0.564968	0.558361	0.558328	0.554599	0.556930	0.548291	0.547804	0.546207	0.540481	0.539888	0.536536	0.534700	0.533529	0.525030	0.534757	0.532921	0.525011	0.527562	0.523966	0.518572	0.520999	0.515020	0.520144	0.521292	0.514422	0.517973	0.513674	0.514753	0.512677	0.512739	0.516085	0.509344	0.507265	0.510761	0.508914	0.509152	0.508110	0.510501	0.508537	0.503246	0.506856	0.505462	0.505237	0.505381	0.504465	0.504992	0.505261	0.501882	0.502031	0.498433
0.548668	0.554760	0.557203	0.564190	0.567347	0.571794	0.572882	0.579167	0.584747	0.591533	0.594460	0.594033	0.598484	0.601543	0.609302	0.614821	0.615003	0.624805	0.631375	0.631266	0.640026	0.640646	0.639224	0.643888	0.657669	0.656405	0.662911	0.666601	0.669377	0.673070	0.676027	0.674505	0.680723	0.684953	0.682672	0.687557	0.692550	0.688499	0.688595	0.694025	0.693244	0.690171	0.694231	0.691469	0.692907	0.688919	0.692786	0.689888	0.687955	0.683043	0.683694	0.680223	0.679525	0.675827	0.677006	0.672812	0.670037	0.665123	0.662423	0.656514	0.659186	0.653080	0.656248	0.652198	0.647677	0.648187	0.640642	0.645307	0.643087	0.640785	0.637767	0.636463	0.634991	0.629483	0.633285	0.634944	0.632446	0.628515	0.635008	0.636437	0.636988	0.634553	0.635939	0.643947	0.644715	0.646120	0.645248	0.648237	0.656901	0.661077	0.658318	0.663039	0.673483	0.675195	0.679039	0.680928	0.687544	0.693224	0.697335	0.704166	0.709911	0.711997	0.716341	0.721722	0.728060	0.730906	0.737861	0.739314	0.745220	0.749060	0.748935	0.752030	0.752851	0.758849	0.765986	0.767016	0.763249	0.768864	0.766819	0.770467	0.772212	0.771211	0.769070	0.768810	0.770134	0.765223	0.766224	0.760845	0.763758	0.756580	0.758025	0.752502	0.748809	0.747432	0.739487	0.736340	0.734714	0.731458	0.724049	0.720826	0.720315	0.712401	0.706631	0.703828	0.695863	0.691177	0.687891	0.683187	0.675778	0.673840	0.663450	0.660581	0.659716	0.650752	0.643576	0.642269	0.637428	0.631662	0.627670	0.621471	0.618222	0.614739	0.606981	0.602046	0.601636	0.598580	0.591969	0.593510	0.587400	0.582685	0.574900	0.575046	0.570245	0.570621	0.566857	0.561329	0.560395	0.554550	0.551073	0.551635	0.552956	0.550536	0.549371	0.547094	0.541666	0.533311	0.538011	0.533374	0.528396	0.532867	0.531306	0.529775	0.525633	0.526468	0.524990	0.526505	0.516121	0.522366	0.516934	0.519253
0.503419	0.505598	0.505147	0.503754	0.505779	0.507112	0.505325	0.504450	0.510409	0.506737	0.509133	0.504177	0.510621	0.512186	0.510801	0.512266	0.514462	0.509822	0.518093	0.515508	0.518573	0.521734	0.522645	0.521734	0.521912	0.526990	0.527790	0.533532	0.534116	0.537443	0.544404	0.547307	0.549557	0.551955	0.557215	0.558541	0.557375	0.567155	0.580417	0.574982	0.582275	0.586651	0.587458	0.596385	0.603809	0.607466	0.614623	0.622936	0.627879	0.637520	0.644765	0.653810	0.656001	0.665054	0.670861	0.675787	0.685139	0.690414	0.700076	0.709642	0.712869	0.723143	0.726120	0.735564	0.744995	0.749288	0.760321	0.761725	0.766691	0.777868	0.784554	0.786004	0.792086	0.796270	0.799891	0.807836	0.809359	0.816345	0.821501	0.825511	0.826429	0.830566	0.831935	0.830054	0.836040	0.835918	0.839469	0.839646	0.839310	0.842229	0.839513	0.838746	0.841424	0.840286	0.842605	0.836771	0.831880	0.835849	0.825064	0.833612	0.830126	0.830452	0.822033	0.818093	0.813262	0.813540	0.816637	0.807006	0.804214	0.798623	0.802205	0.797935	0.792566	0.786475	0.789542	0.779110	0.774618	0.774173	0.770034	0.763988	0.765356	0.753132	0.750497	0.744812	0.745491	0.736984	0.730920	0.725277	0.723716	0.715418	0.715626	0.707648	0.703591	0.696142	0.691094	0.690921	0.687659	0.680929	0.674339	0.673948	0.666037	0.660125	0.653775	0.643576	0.643699	0.639135	0.634675	0.632397	0.624071	0.622991	0.617211	0.612924	0.610601	0.607784	0.598995	0.598964	0.590610	0.590724	0.588376	0.586900	0.573424	0.576316	0.571015	0.574129	0.569234	0.562389	0.565218	0.560145	0.555610	0.552576	0.550385	0.544480	0.542018	0.543346	0.540828	0.536692	0.535874	0.533842	0.527774	0.531472	0.530899	0.529518	0.525348	0.521832	0.518711	0.515895	0.516482	0.512483	0.515999	0.512849	0.511616	0.511918	0.508078	0.508821	0.502766	0.503947	0.501534	0.505573	0.500277	0.499274
0.516229	0.508011	0.513705	0.518230	0.518979	0.518147	0.513863	0.521926	0.520669	0.522020	0.523490	0.528827	0.526072	0.528341	0.528767	0.527259	0.532319	0.532825	0.531851	0.538416	0.537995	0.538609	0.543553	0.536468	0.543969	0.539712	0.541160	0.546012	0.545458	0.549105	0.547837	0.550052	0.549559	0.547719	0.549581	0.551732	0.548413	0.554924	0.556265	0.554315	0.554186	0.552914	0.553939	0.555732	0.558412	0.561905	0.557316	0.561864	0.563226	0.559436	0.567761	0.559568	0.560142	0.560744	0.562640	0.564234	0.563548	0.570643	0.566671	0.571112	0.573337	0.578103	0.573769	0.580897	0.579347	0.585267	0.586783	0.588865	0.595876	0.596468	0.597924	0.600972	0.609320	0.611510	0.621202	0.622901	0.629698	0.638404	0.638403	0.644441	0.653750	0.660678	0.667112	0.676057	0.684065	0.690045	0.701493	0.713764	0.722361	0.730951	0.739904	0.747586	0.756685	0.766312	0.775396	0.789385	0.796415	0.809782	0.815508	0.825112	0.837201	0.849697	0.854092	0.866473	0.873671	0.881122	0.889036	0.893713	0.903343	0.909362	0.921373	0.917412	0.927590	0.931120	0.934931	0.936070	0.937243	0.941644	0.941804	0.938891	0.937315	0.939538	0.938688	0.939703	0.932230	0.929061	0.920910	0.919883	0.916023	0.910208	0.902186	0.894069	0.889662	0.878155	0.867256	0.862699	0.852375	0.841189	0.835388	0.819583	0.815596	0.804237	0.792419	0.778737	0.768800	0.756517	0.748225	0.737601	0.729163	0.717683	0.706320	0.703047	0.683587	0.676454	0.666126	0.660617	0.652053	0.642636	0.631581	0.626457	0.618314	0.613655	0.606160	0.597905	0.590274	0.582024	0.576811	0.569698	0.565158	0.556496	0.556277	0.561437	0.547111	0.549392	0.541883	0.539436	0.531098	0.532193	0.533443	0.527085	0.524644	0.523847	0.526095	0.521748	0.518265	0.521169	0.514389	0.509416	0.507061	0.514603	0.512889	0.510149	0.508914	0.502078	0.510346	0.511279	0.507121	0.506876	0.505242	0.506290
0.609166	0.613898	0.626948	0.633412	0.639877	0.649964	0.656034	0.667365	0.675729	0.679141	0.694524	0.701931	0.712631	0.720324	0.730034	0.739808	0.749304	0.761557	0.762464	0.778584	0.788437	0.798230	0.809634	0.812769	0.822693	0.833308	0.843817	0.844331	0.851166	0.860680	0.865387	0.873414	0.883427	0.886633	0.891463	0.892814	0.893478	0.899910	0.905104	0.905294	0.904876	0.904383	0.903201	0.900946	0.909624	0.899429	0.893961	0.894850	0.890108	0.891473	0.883041	0.880553	0.871201	0.867912	0.859272	0.851539	0.843149	0.840893	0.828079	0.824917	0.820905	0.805371	0.803617	0.792442	0.783025	0.774797	0.766150	0.752620	0.750819	0.741205	0.727645	0.722512	0.715697	0.705796	0.698907	0.695134	0.683905	0.679250	0.672941	0.662802	0.654892	0.649427	0.643712	0.637389	0.625858	0.626174	0.620427	0.610584	0.609445	0.603101	0.598413	0.591985	0.590650	0.587973	0.583091	0.576741	0.576314	0.572213	0.573228	0.565610	0.570089	0.561369	0.561369	0.552186	0.557149	0.553266	0.545346	0.551155	0.551342	0.548040	0.548012	0.546269	0.543800	0.546989	0.542088	0.545588	0.542089	0.543718	0.543304	0.544488	0.543188	0.544432	0.544205	0.545881	0.544537	0.543349	0.541651	0.545507	0.544558	0.546046	0.543404	0.548131	0.547061	0.547531	0.548085	0.549422	0.550819	0.555431	0.550897	0.555603	0.556024	0.556533	0.554673	0.557817	0.555097	0.554627	0.562957	0.558981	0.558111	0.558494	0.562202	0.564512	0.563368	0.560270	0.560218	0.562928	0.566665	0.562304	0.571038	0.561130	0.563141	0.560455	0.564347	0.564850	0.564379	0.560679	0.560920	0.566037	0.556000	0.556984	0.556342	0.559233	0.556000	0.553733	0.553257	0.549615	0.549484	0.548892	0.548260	0.543657	0.545825	0.544324	0.545415	0.541986	0.539546	0.538496	0.538793	0.535495	0.535558	0.536998	0.532021	0.527976	0.527657	0.529793	0.531870	0.525273	0.521935	0.526347	0.520325	0.521048
0.497672	0.503982	0.500240	0.505525	0.499598	0.497158	0.501615	0.501896	0.502456	0.502519	0.504260	0.507465	0.504377	0.501375	0.502253	0.507936	0.508515	0.507120	0.506742	0.505934	0.507566	0.512113	0.506436	0.506073	0.509460	0.503971	0.511796	0.511781	0.516664	0.514486	0.508532	0.513897	0.509663	0.512466	0.517071	0.517887	0.520582	0.523475	0.518278	0.523600	0.520609	0.528209	0.524079	0.527966	0.529341	0.528653	0.531044	0.530045	0.531480	0.531929	0.536236	0.532814	0.539871	0.541599	0.542964	0.546982	0.553264	0.553360	0.550809	0.560429	0.563038	0.564709	0.564046	0.565460	0.573639	0.575370	0.579094	0.578031	0.587316	0.591896	0.597438	0.598997	0.604146	0.610368	0.613352	0.621517	0.628004	0.630009	0.633793	0.640731	0.651437	0.658093	0.659862	0.670855	0.673554	0.681881	0.688123	0.690218	0.706362	0.712078	0.722457	0.727100	0.734980	0.744268	0.752669	0.759563	0.765322	0.773092	0.782311	0.790531	0.801292	0.804827	0.809417	0.820372	0.832005	0.830022	0.844596	0.846636	0.855538	0.855308	0.863884	0.864634	0.873399	0.876278	0.876849	0.883651	0.885052	0.887322	0.891911	0.892384	0.887625	0.886052	0.894287	0.887356	0.890334	0.889426	0.886297	0.886220	0.883393	0.876321	0.878460	0.868630	0.866124	0.863260	0.854495	0.848101	0.845997	0.835568	0.839531	0.824998	0.824918	0.814653	0.812042	0.803349	0.802734	0.788202	0.779293	0.778263	0.768494	0.764312	0.756046	0.749257	0.743235	0.737884	0.728059	0.724499	0.715567	0.710397	0.703604	0.698325	0.691115	0.686702	0.683051	0.672010	0.666471	0.660511	0.655193	0.654730	0.646314	0.640843	0.632993	0.630694	0.622415	0.621800	0.612905	0.611263	0.605074	0.603923	0.597312	0.589878	0.590021	0.584100	0.577503	0.576800	0.571608	0.566778	0.564753	0.562893	0.555211	0.552946	0.551465	0.552425	0.546393	0.536342	0.543972	0.537612	0.539018	0.532914	0.529328	0.529095
0.563991	0.566755	0.571606	0.572455	0.582345	0.581668	0.592523	0.592774	0.600718	0.602662	0.608752	0.617529	0.621136	0.626394	0.635982	0.639369	0.644327	0.647612	0.655607	0.656245	0.663516	0.665088	0.674812	0.679110	0.687193	0.688610	0.690664	0.701391	0.705054	0.706918	0.710031	0.721544	0.719930	0.721727	0.725816	0.724931	0.729492	0.730937	0.734226	0.733932	0.735442	0.739973	0.735925	0.732456	0.736125	0.735598	0.734103	0.732962	0.736440	0.729498	0.732037	0.730435	0.727784	0.720526	0.717158	0.718399	0.711149	0.707855	0.702998	0.700076	0.697039	0.692747	0.694077	0.685672	0.684361	0.679090	0.678448	0.672712	0.668855	0.661023	0.660332	0.653656	0.652985	0.648370	0.646983	0.641365	0.637996	0.635030	0.632143	0.634211	0.627486	0.625653	0.621049	0.618414	0.613383	0.615952	0.611365	0.612242	0.608583	0.608687	0.608107	0.604361	0.604413	0.604418	0.605262	0.603864	0.599108	0.599964	0.606021	0.601687	0.602954	0.603670	0.602876	0.604857	0.607400	0.604077	0.601284	0.601079	0.604363	0.605144	0.606095	0.611323	0.610455	0.609238	0.609601	0.615705	0.617449	0.614594	0.617998	0.622618	0.623062	0.625085	0.626811	0.629436	0.631716	0.631317	0.634633	0.635273	0.636640	0.642605	0.640909	0.646753	0.647847	0.649729	0.652697	0.654167	0.656882	0.661509	0.659752	0.661601	0.662295	0.662298	0.663497	0.666259	0.670401	0.673852	0.670165	0.673882	0.676033	0.679021	0.680464	0.679241	0.680174	0.678087	0.672797	0.678532	0.678629	0.672553	0.675220	0.672697	0.672157	0.674562	0.670413	0.667972	0.661104	0.665442	0.664349	0.657908	0.652082	0.650688	0.648135	0.644332	0.642428	0.639803	0.635819	0.634342	0.625761	0.620459	0.616689	0.614476	0.609380	0.606384	0.603442	0.602389	0.592811	0.587566	0.583930	0.583991	0.578248	0.571286	0.572994	0.566411	0.557772	0.554636	0.555215	0.553029	0.546379	0.546565	0.547236	0.534428
0.505455	0.511511	0.509409	0.506994	0.509762	0.508534	0.513729	0.510727	0.514915	0.519314	0.520467	0.516647	0.514380	0.520388	0.521882	0.519899	0.520614	0.521498	0.522290	0.522861	0.522614	0.525379	0.526166	0.530055	0.530593	0.527168	0.532957	0.531993	0.535695	0.534030	0.536454	0.536950	0.541368	0.535342	0.541449	0.537657	0.539684	0.543090	0.542333	0.543125	0.546064	0.545478	0.548022	0.549085	0.549340	0.554437	0.550394	0.553177	0.553708	0.557240	0.557834	0.563081	0.569461	0.563922	0.570552	0.561622	0.564645	0.565322	0.565288	0.568871	0.575817	0.570274	0.571659	0.572646	0.572900	0.577246	0.577641	0.577157	0.580609	0.586853	0.581874	0.588202	0.591403	0.588288	0.586320	0.590577	0.590204	0.593705	0.590897	0.595203	0.598638	0.595756	0.600848	0.604882	0.603131	0.601591	0.605220	0.606018	0.612262	0.611381	0.609581	0.615339	0.617970	0.616762	0.620636	0.622819	0.621151	0.621136	0.626624	0.631265	0.638170	0.634394	0.641606	0.636177	0.643399	0.642082	0.648500	0.650258	0.653973	0.655089	0.658349	0.661897	0.667193	0.677415	0.675557	0.679078	0.682106	0.688797	0.690944	0.699389	0.700468	0.706435	0.712740	0.716513	0.722438	0.731087	0.733879	0.742434	0.744440	0.751872	0.754008	0.763324	0.768188	0.778703	0.784736	0.784234	0.792647	0.793801	0.800866	0.808033	0.811627	0.816278	0.820173	0.826839	0.834891	0.836454	0.843571	0.844657	0.847031	0.855487	0.855353	0.861539	0.854296	0.857981	0.859907	0.865532	0.868218	0.865946	0.864350	0.859623	0.859401	0.854914	0.855471	0.850649	0.843312	0.842164	0.836816	0.833856	0.832390	0.822144	0.820769	0.811291	0.804653	0.797491	0.793770	0.784698	0.774312	0.769432	0.762056	0.752302	0.742607	0.737021	0.731688	0.721615	0.716282	0.701719	0.697240	0.686825	0.679732	0.671954	0.665002	0.659872	0.648335	0.640266	0.637225	0.629289	0.622082	0.613894	0.607553	0.601128
0.509145	0.512914	0.515223	0.517234	0.516963	0.513506	0.519406	0.516038	0.522331	0.521842	0.526058	0.517792	0.524231	0.522407	0.528349	0.528054	0.533832	0.531839	0.532940	0.534797	0.536095	0.532804	0.542389	0.542443	0.540065	0.544775	0.546223	0.548137	0.547956	0.551223	0.552251	0.554389	0.558611	0.560723	0.568749	0.565011	0.567108	0.565697	0.571318	0.573032	0.575303	0.575577	0.573126	0.578497	0.581595	0.586354	0.584576	0.584199	0.593221	0.595262	0.595579	0.604467	0.606115	0.605283	0.603456	0.611528	0.604507	0.616197	0.618284	0.621030	0.624725	0.627966	0.632846	0.635485	0.636304	0.638138	0.645598	0.650253	0.648651	0.656437	0.657975	0.660968	0.664257	0.668341	0.670433	0.672689	0.675657	0.682365	0.683948	0.688811	0.688710	0.697064	0.701880	0.699421	0.709312	0.711119	0.721614	0.716043	0.721382	0.730948	0.734345	0.737881	0.742253	0.743394	0.743307	0.751937	0.753606	0.760742	0.757754	0.766541	0.768293	0.771473	0.776718	0.779377	0.777360	0.783995	0.787648	0.787591	0.793068	0.794538	0.800807	0.795857	0.800611	0.800034	0.802452	0.802474	0.803288	0.800545	0.803038	0.807198	0.795911	0.807555	0.803519	0.800740	0.797665	0.799629	0.796533	0.792166	0.791903	0.789031	0.787262	0.782126	0.779689	0.778998	0.773032	0.771196	0.768940	0.765663	0.759967	0.751000	0.747357	0.747809	0.740473	0.737611	0.734836	0.727639	0.722571	0.718189	0.716845	0.707976	0.705545	0.698739	0.697790	0.691563	0.689898	0.681628	0.675198	0.678018	0.669901	0.663490	0.660394	0.653100	0.651636	0.647335	0.636331	0.634574	0.633093	0.627316	0.628868	0.619096	0.616029	0.609922	0.606825	0.604183	0.595376	0.591666	0.588710	0.586809	0.587503	0.577587	0.575017	0.573488	0.569825	0.569944	0.563862	0.561491	0.557243	0.554065	0.550644	0.545914	0.542826	0.544332	0.542241	0.536561	0.531985	0.532622	0.529532	0.525503	0.528713	0.522990
0.550237	0.556496	0.555053	0.563838	0.565685	0.569187	0.573388	0.572146	0.577858	0.586262	0.590102	0.595175	0.593709	0.602705	0.608516	0.611112	0.620431	0.624044	0.630354	0.636123	0.639706	0.647940	0.648933	0.654508	0.661265	0.663346	0.666577	0.672487	0.683144	0.688557	0.687151	0.694483	0.698810	0.706146	0.711664	0.715033	0.718116	0.722193	0.725524	0.731312	0.738403	0.740433	0.740166	0.745515	0.749315	0.752355	0.761286	0.758725	0.760827	0.764280	0.764921	0.765642	0.771545	0.774136	0.769755	0.781540	0.774282	0.775647	0.777897	0.781351	0.780990	0.780921	0.784796	0.785052	0.780469	0.785741	0.784763	0.786960	0.787795	0.786371	0.788285	0.784716	0.787622	0.782941	0.780521	0.784165	0.782222	0.779864	0.783111	0.780410	0.775109	0.774169	0.774799	0.766975	0.765724	0.761706	0.763420	0.762200	0.761415	0.757680	0.749788	0.748567	0.747797	0.740438	0.742868	0.739477	0.735191	0.728540	0.727577	0.722666	0.720326	0.715816	0.711543	0.710454	0.707769	0.700836	0.698458	0.694686	0.691670	0.686299	0.680874	0.682609	0.675824	0.666361	0.664993	0.669845	0.663318	0.661623	0.656232	0.645493	0.643965	0.644045	0.637026	0.637580	0.639475	0.629584	0.628708	0.627359	0.623378	0.625964	0.618905	0.614922	0.610544	0.607716	0.600154	0.607375	0.602733	0.596554	0.591525	0.591729	0.592646	0.587767	0.586663	0.581491	0.586188	0.579632	0.581629	0.576933	0.569917	0.571950	0.569417	0.565103	0.566136	0.558564	0.560805	0.562992	0.558421	0.552869	0.551568	0.554206	0.550070	0.550672	0.542804	0.542755	0.543632	0.542123	0.540613	0.539742	0.539758	0.533871	0.538022	0.539152	0.531707	0.533228	0.525873	0.526845	0.528279	0.526961	0.522463	0.518437	0.520614	0.522209	0.521162	0.520631	0.512137	0.519707	0.516264	0.512532	0.510736	0.507585	0.514551	0.505492	0.509692	0.508767	0.507022	0.508467	0.506300	0.501831	0.504690	0.504938
0.506912	0.511146	0.511447	0.511032	0.514705	0.514517	0.517197	0.517038	0.518410	0.514169	0.521039	0.523182	0.516129	0.521789	0.524853	0.525184	0.528676	0.528494	0.529854	0.530795	0.531658	0.527993	0.537779	0.538149	0.537456	0.545685	0.546824	0.548508	0.545327	0.548812	0.554313	0.557326	0.562450	0.563110	0.569048	0.572168	0.571482	0.577655	0.577479	0.579539	0.586021	0.591916	0.594104	0.593999	0.598846	0.603513	0.603799	0.612109	0.617214	0.620089	0.626263	0.628939	0.636156	0.636517	0.642948	0.647653	0.648423	0.660054	0.656710	0.663797	0.665532	0.670573	0.673988	0.679589	0.685369	0.681172	0.687401	0.697223	0.692731	0.696047	0.704209	0.704194	0.710024	0.707543	0.709338	0.706890	0.712402	0.712874	0.708821	0.712579	0.714155	0.712928	0.712519	0.716469	0.711314	0.707046	0.703118	0.703432	0.703463	0.698273	0.698482	0.692913	0.696681	0.682473	0.684891	0.680132	0.676886	0.678429	0.672275	0.667800	0.659790	0.664618	0.665168	0.654439	0.648577	0.649491	0.648754	0.645445	0.646673	0.639750	0.637450	0.637121	0.632084	0.634871	0.636240	0.632757	0.630187	0.632819	0.634385	0.634219	0.636132	0.635041	0.637875	0.640215	0.640774	0.647245	0.651807	0.647523	0.655806	0.658984	0.663852	0.671387	0.671474	0.679123	0.684259	0.685395	0.691758	0.692312	0.698883	0.702269	0.710337	0.722321	0.713981	0.724990	0.726370	0.734684	0.736801	0.744729	0.741533	0.750571	0.753863	0.754686	0.754497	0.761513	0.756940	0.764080	0.765370	0.764942	0.758111	0.761870	0.764946	0.760512	0.759064	0.757832	0.755480	0.751925	0.757120	0.748118	0.743462	0.740029	0.742293	0.731037	0.728087	0.722173	0.718131	0.713317	0.707543	0.699641	0.694511	0.684244	0.683009	0.677882	0.672506	0.664930	0.660353	0.650271	0.645411	0.637990	0.631174	0.627815	0.621908	0.614710	0.611061	0.601243	0.595263	0.590268	0.583818	0.582830	0.573875	0.566831
0.509446	0.502758	0.503302	0.503198	0.504861	0.506278	0.506790	0.504641	0.507510	0.505842	0.502768	0.505880	0.507128	0.506719	0.503429	0.508018	0.508642	0.508996	0.505899	0.511077	0.508553	0.507213	0.514510	0.511521	0.513620	0.513133	0.515825	0.511604	0.513579	0.510391	0.511141	0.512218	0.513720	0.514909	0.516920	0.514936	0.516084	0.516552	0.514134	0.515840	0.517846	0.515898	0.513391	0.515672	0.517164	0.521071	0.519833	0.522659	0.524948	0.522910	0.518438	0.520311	0.520973	0.522289	0.522209	0.520811	0.525502	0.520722	0.526075	0.524776	0.526366	0.528121	0.526893	0.529296	0.526631	0.527977	0.533540	0.531567	0.529460	0.527567	0.530442	0.531045	0.531353	0.536476	0.530714	0.535150	0.534528	0.535420	0.537531	0.539128	0.537803	0.539984	0.542913	0.542823	0.546846	0.541678	0.546135	0.548174	0.548923	0.551162	0.553588	0.554634	0.557387	0.562800	0.562379	0.566823	0.563844	0.564933	0.574113	0.578544	0.576006	0.578595	0.583019	0.587745	0.592142	0.593305	0.595815	0.606044	0.605835	0.612507	0.613257	0.619756	0.628121	0.630526	0.640539	0.640666	0.652513	0.661519	0.665892	0.672253	0.679731	0.686556	0.696343	0.695724	0.709350	0.716659	0.725136	0.742598	0.745815	0.755085	0.759571	0.773572	0.779699	0.789631	0.799684	0.809298	0.816979	0.826564	0.841818	0.846295	0.853296	0.862663	0.869313	0.874519	0.887576	0.894002	0.901232	0.904315	0.908949	0.916143	0.922939	0.924248	0.931615	0.935442	0.939277	0.939040	0.938474	0.944178	0.940931	0.939267	0.940251	0.939777	0.934562	0.932888	0.927309	0.927048	0.920447	0.916979	0.909795	0.903173	0.899268	0.890876	0.878894	0.869186	0.863129	0.853453	0.847949	0.839028	0.826119	0.815849	0.802585	0.801737	0.789071	0.770227	0.764586	0.751553	0.745824	0.729986	0.720959	0.710046	0.701655	0.692235	0.684152	0.672354	0.665222	0.652887	0.651973	0.640626	0.630783	0.625679
0.511548	0.511647	0.513348	0.513763	0.514817	0.513294	0.516825	0.519888	0.519152	0.520142	0.526411	0.524867	0.520391	0.525207	0.527789	0.531464	0.534369	0.532469	0.530552	0.538579	0.537500	0.538813	0.539993	0.546343	0.545748	0.549044	0.550191	0.553438	0.556186	0.555438	0.563354	0.558711	0.568047	0.574774	0.573253	0.580056	0.580820	0.587930	0.585498	0.594079	0.593591	0.599560	0.605224	0.610353	0.612342	0.614875	0.619855	0.621455	0.629999	0.632943	0.641320	0.646296	0.650259	0.656976	0.658344	0.662951	0.667915	0.675116	0.680442	0.683847	0.688035	0.695200	0.701003	0.704339	0.708565	0.714160	0.714530	0.719097	0.720142	0.726757	0.731117	0.733959	0.732053	0.739428	0.742309	0.746027	0.745144	0.744811	0.749543	0.748144	0.752520	0.749598	0.752547	0.751173	0.753175	0.756515	0.752248	0.750952	0.748799	0.750423	0.747053	0.747365	0.748229	0.745657	0.741327	0.737175	0.735986	0.732037	0.737439	0.732535	0.730341	0.725550	0.722062	0.719548	0.722248	0.718206	0.713764	0.710357	0.704930	0.708464	0.703746	0.700546	0.697527	0.701104	0.697192	0.697854	0.694705	0.693942	0.690014	0.692480	0.684730	0.689990	0.691519	0.688965	0.687015	0.688460	0.694919	0.690816	0.683398	0.688409	0.692272	0.688354	0.687459	0.695453	0.690769	0.692756	0.697914	0.694352	0.695925	0.697947	0.693389	0.693478	0.702779	0.702314	0.700802	0.697184	0.701061	0.704149	0.700742	0.701850	0.706196	0.698873	0.700562	0.699009	0.702540	0.703353	0.708079	0.699258	0.694284	0.696803	0.694381	0.693422	0.689482	0.690764	0.687304	0.684413	0.683464	0.677322	0.674579	0.674932	0.672431	0.664776	0.664829	0.659078	0.651942	0.650298	0.642210	0.639734	0.638012	0.632684	0.632182	0.624355	0.618683	0.616890	0.614323	0.606383	0.599207	0.599457	0.590251	0.587976	0.583306	0.583625	0.573708	0.571679	0.571204	0.565195	0.561682	0.559525	0.557515	0.550971
0.515216	0.513568	0.517442	0.520189	0.523668	0.517838	0.521142	0.525492	0.529187	0.532260	0.532283	0.529332	0.536799	0.536358	0.542531	0.540111	0.545510	0.544741	0.551202	0.556583	0.560028	0.561671	0.561909	0.572937	0.568944	0.575057	0.586530	0.587909	0.592498	0.598207	0.601847	0.604250	0.618338	0.617943	0.627354	0.627035	0.642216	0.649278	0.656888	0.660296	0.670735	0.675722	0.685171	0.694689	0.698328	0.712242	0.727218	0.730078	0.740749	0.748028	0.758884	0.771790	0.782512	0.788996	0.802212	0.807338	0.818648	0.826376	0.837889	0.847975	0.856696	0.863142	0.872779	0.882589	0.887485	0.899663	0.906301	0.914653	0.921262	0.921407	0.929129	0.935125	0.946318	0.947173	0.948102	0.950864	0.950973	0.954385	0.953216	0.957019	0.952347	0.951775	0.952361	0.948935	0.944756	0.938535	0.929081	0.929766	0.923100	0.917062	0.909024	0.905087	0.897262	0.893766	0.880534	0.870434	0.864885	0.852460	0.841587	0.831399	0.819083	0.808106	0.799186	0.785919	0.780912	0.765328	0.756951	0.749973	0.733257	0.727677	0.712406	0.702465	0.692155	0.684646	0.675995	0.664898	0.657822	0.646036	0.636502	0.628614	0.622973	0.615813	0.609312	0.602372	0.592505	0.588185	0.581981	0.572318	0.569480	0.568533	0.558851	0.556801	0.551058	0.547442	0.546803	0.543176	0.537774	0.537132	0.533267	0.529848	0.531276	0.523703	0.522383	0.519187	0.520486	0.516606	0.517075	0.520241	0.511320	0.506887	0.509970	0.512297	0.509440	0.509627	0.508929	0.500753	0.503562	0.506807	0.506493	0.504204	0.502284	0.503022	0.508390	0.509349	0.504208	0.500883	0.506677	0.503229	0.503088	0.499200	0.502472	0.499388	0.497470	0.500478	0.498783	0.500869	0.497693	0.502284	0.498754	0.498443	0.495405	0.500308	0.499913	0.495426	0.498865	0.497216	0.497098	0.501485	0.496331	0.497490	0.499791	0.496675	0.496104	0.496328	0.499301	0.487972	0.495918	0.493385	0.493961	0.497328
0.607119	0.616869	0.620956	0.630753	0.642334	0.645613	0.654347	0.662303	0.669084	0.682261	0.694362	0.700522	0.711301	0.720076	0.725240	0.739319	0.745784	0.756024	0.764861	0.778145	0.788573	0.788959	0.802681	0.811742	0.821422	0.825317	0.836773	0.844585	0.854459	0.852497	0.863679	0.870143	0.871820	0.875400	0.885576	0.885516	0.890676	0.889932	0.893190	0.891954	0.899559	0.890820	0.890484	0.890030	0.886339	0.886150	0.879945	0.876255	0.871342	0.868937	0.863138	0.853389	0.853643	0.842927	0.837069	0.828855	0.819764	0.810535	0.801139	0.792034	0.782010	0.773147	0.765971	0.758545	0.747310	0.735409	0.732038	0.719337	0.707581	0.701764	0.691177	0.683549	0.673076	0.661451	0.656296	0.649604	0.642210	0.638661	0.626902	0.618671	0.608468	0.611833	0.595855	0.594504	0.589652	0.588031	0.576170	0.577585	0.567505	0.566633	0.563695	0.564584	0.554527	0.548076	0.551935	0.548964	0.548767	0.544752	0.539527	0.541457	0.536407	0.538761	0.538511	0.533172	0.532341	0.534487	0.535217	0.524651	0.531696	0.533391	0.534260	0.532159	0.533287	0.540876	0.539568	0.536817	0.536266	0.538586	0.539626	0.541198	0.542803	0.545224	0.548497	0.546160	0.550345	0.550298	0.551639	0.552906	0.555261	0.557355	0.561294	0.562424	0.565094	0.566567	0.568416	0.570848	0.577621	0.577111	0.576543	0.583816	0.580207	0.583452	0.585377	0.587582	0.590039	0.589372	0.589283	0.595937	0.592409	0.597269	0.601551	0.600255	0.604932	0.596060	0.598966	0.601307	0.600523	0.602999	0.604857	0.600251	0.600991	0.603797	0.603259	0.595175	0.597236	0.599225	0.599169	0.594320	0.595466	0.590728	0.592486	0.591641	0.589775	0.588571	0.583771	0.583556	0.578249	0.579531	0.573315	0.572081	0.568886	0.564548	0.571336	0.564380	0.559115	0.559216	0.556756	0.551915	0.554482	0.550640	0.547483	0.547859	0.539189	0.539138	0.538887	0.541814	0.538529	0.533711	0.532671	0.531307
0.503593	0.503371	0.507111	0.511261	0.507572	0.505684	0.510895	0.509140	0.510281	0.511336	0.508528	0.509728	0.511497	0.510430	0.512775	0.513056	0.518264	0.513787	0.517863	0.516234	0.512117	0.515554	0.513944	0.518974	0.516518	0.519930	0.521188	0.522413	0.521195	0.524506	0.525165	0.518927	0.526750	0.529331	0.528167	0.529719	0.526048	0.531637	0.535153	0.535635	0.533604	0.533652	0.536103	0.534564	0.543958	0.542721	0.544334	0.542909	0.540830	0.546127	0.544014	0.550355	0.555125	0.549055	0.552314	0.555347	0.559924	0.558306	0.560393	0.560157	0.561911	0.565970	0.568549	0.575442	0.571143	0.575504	0.581862	0.585139	0.581994	0.587610	0.586340	0.592546	0.591619	0.599037	0.602448	0.602116	0.611740	0.609825	0.618492	0.616485	0.623545	0.624266	0.626097	0.632541	0.641051	0.641929	0.649979	0.651486	0.652605	0.654834	0.666744	0.666929	0.669087	0.675386	0.682449	0.686096	0.693704	0.696998	0.704029	0.711834	0.712966	0.715091	0.718656	0.727246	0.730580	0.737318	0.743167	0.742371	0.751244	0.751200	0.758975	0.763664	0.764005	0.768271	0.774352	0.776771	0.779197	0.785609	0.785918	0.788014	0.788458	0.790475	0.796132	0.797471	0.802770	0.801061	0.808293	0.805127	0.808742	0.807966	0.810426	0.807687	0.814174	0.812035	0.810826	0.812960	0.810065	0.810248	0.809642	0.811025	0.812951	0.810307	0.810928	0.810377	0.806437	0.803028	0.807628	0.798962	0.799230	0.805398	0.796348	0.794272	0.792040	0.786392	0.788655	0.783035	0.784439	0.776036	0.774152	0.766337	0.765299	0.762956	0.756434	0.755186	0.746492	0.750297	0.739239	0.735819	0.731658	0.722356	0.715244	0.713602	0.706271	0.701959	0.697575	0.691895	0.680939	0.679326	0.669002	0.667059	0.657111	0.651711	0.643151	0.636146	0.629605	0.629532	0.622456	0.619830	0.612022	0.604759	0.600592	0.593616	0.584873	0.587425	0.579787	0.574211	0.569946	0.565295	0.561380	0.560065
0.531203	0.528725	0.531523	0.535972	0.544560	0.538928	0.539044	0.546590	0.543016	0.545567	0.552718	0.551977	0.559132	0.560748	0.563042	0.564655	0.570119	0.569700	0.571117	0.574457	0.580246	0.578361	0.583940	0.593436	0.597165	0.593984	0.593517	0.598495	0.609101	0.604230	0.611421	0.610055	0.616776	0.617015	0.621452	0.624339	0.625779	0.629022	0.638629	0.636173	0.637367	0.638811	0.645703	0.643953	0.651064	0.643199	0.650863	0.654584	0.655878	0.659770	0.663854	0.661339	0.666558	0.662960	0.669354	0.678558	0.675877	0.675006	0.674168	0.679974	0.681618	0.682144	0.690460	0.684193	0.688045	0.690190	0.691714	0.700921	0.703092	0.703356	0.699161	0.702473	0.708587	0.700754	0.703402	0.706606	0.710847	0.705952	0.708493	0.714056	0.713734	0.717374	0.716495	0.718396	0.720135	0.724015	0.724047	0.719811	0.727834	0.722282	0.724835	0.727246	0.726869	0.729562	0.725193	0.729388	0.731578	0.733862	0.729580	0.734734	0.729956	0.739654	0.742120	0.731985	0.738851	0.743372	0.739164	0.734387	0.738693	0.738986	0.739165	0.743472	0.738111	0.737447	0.739520	0.733082	0.735746	0.735895	0.738675	0.737475	0.733934	0.734565	0.732309	0.734537	0.728404	0.729993	0.728213	0.725780	0.722710	0.722236	0.723543	0.720893	0.713214	0.711738	0.709941	0.706828	0.702951	0.700787	0.704344	0.699926	0.698185	0.693947	0.695570	0.688436	0.685275	0.681540	0.680104	0.676552	0.670152	0.668294	0.666457	0.659483	0.662074	0.655481	0.654985	0.648910	0.654353	0.650904	0.642556	0.637306	0.638103	0.638917	0.630796	0.622384	0.622549	0.617583	0.612864	0.607034	0.608166	0.606168	0.601079	0.604038	0.594217	0.593695	0.589813	0.591512	0.585146	0.582065	0.574671	0.576626	0.568224	0.563230	0.566481	0.565564	0.558333	0.555844	0.557068	0.546350	0.550036	0.546778	0.542004	0.541782	0.541359	0.538479	0.540701	0.532635	0.535304	0.526595	0.529394	0.524675
0.509558	0.508794	0.508824	0.511253	0.515746	0.512716	0.513469	0.514935	0.513997	0.515560	0.518626	0.520206	0.526574	0.521092	0.528816	0.522468	0.528433	0.535851	0.532203	0.537097	0.536865	0.541510	0.539188	0.543838	0.546703	0.545057	0.549605	0.553420	0.557556	0.563044	0.564612	0.563241	0.568962	0.574295	0.580389	0.591362	0.592006	0.593680	0.594178	0.605777	0.607218	0.616062	0.616145	0.628067	0.630443	0.631157	0.642646	0.655504	0.651841	0.660241	0.664832	0.677831	0.679623	0.688845	0.693614	0.703834	0.706230	0.716412	0.720253	0.734384	0.739717	0.741243	0.749633	0.755263	0.761482	0.765892	0.776566	0.781350	0.781143	0.790871	0.798907	0.799227	0.800048	0.811171	0.810373	0.814106	0.816934	0.817214	0.815152	0.818498	0.822054	0.818036	0.819014	0.820625	0.818916	0.821899	0.817394	0.817898	0.814055	0.811426	0.807289	0.805457	0.806288	0.801568	0.799335	0.793714	0.787828	0.785540	0.777921	0.780318	0.773441	0.768833	0.764019	0.756772	0.752102	0.751478	0.745390	0.744849	0.736919	0.732804	0.725410	0.721795	0.718413	0.714332	0.707178	0.707311	0.700889	0.694807	0.695487	0.692649	0.691391	0.683183	0.677762	0.677778	0.676422	0.673730	0.672125	0.670475	0.665685	0.664749	0.664596	0.658441	0.663894	0.659718	0.663453	0.662899	0.658412	0.655528	0.653019	0.652658	0.654255	0.658086	0.654158	0.655566	0.651050	0.648028	0.656000	0.648892	0.649544	0.645746	0.645432	0.649053	0.643656	0.649242	0.645064	0.643629	0.639230	0.642887	0.639672	0.640876	0.640468	0.634056	0.633391	0.634956	0.629184	0.628292	0.626125	0.621761	0.617580	0.620182	0.612548	0.614460	0.612916	0.605992	0.605359	0.604279	0.597806	0.600855	0.594480	0.591431	0.589152	0.584748	0.578711	0.578946	0.574432	0.570745	0.570607	0.568079	0.562263	0.561208	0.557394	0.557571	0.551179	0.554007	0.551077	0.546544	0.541330	0.540540	0.537593	0.540042
0.530599	0.535378	0.535911	0.539025	0.540886	0.543948	0.549172	0.548824	0.554116	0.561156	0.558648	0.563056	0.559587	0.567008	0.575573	0.577550	0.579530	0.581697	0.578677	0.582665	0.587056	0.592365	0.590021	0.597317	0.601474	0.601344	0.602827	0.605633	0.607353	0.615880	0.611846	0.613271	0.613791	0.620129	0.620358	0.625467	0.619339	0.625527	0.622987	0.628025	0.627929	0.631694	0.628248	0.627955	0.629937	0.626868	0.627929	0.630038	0.632491	0.623775	0.626499	0.625496	0.624688	0.620837	0.617222	0.617845	0.620435	0.621345	0.615394	0.611956	0.610456	0.609056	0.611381	0.608116	0.602431	0.598308	0.603521	0.598030	0.600429	0.589793	0.597191	0.594573	0.590102	0.588627	0.585679	0.586882	0.578669	0.577569	0.582631	0.575985	0.574351	0.571530	0.569336	0.570632	0.571562	0.568151	0.569690	0.567207	0.567328	0.562885	0.562224	0.562842	0.561524	0.561760	0.558289	0.563847	0.568049	0.565872	0.565317	0.560179	0.569822	0.567964	0.564853	0.566911	0.570383	0.574564	0.576579	0.578219	0.577570	0.580591	0.585087	0.586460	0.584360	0.592204	0.593063	0.599099	0.600813	0.606884	0.614539	0.619028	0.621201	0.627682	0.631111	0.633982	0.645200	0.649047	0.653221	0.662264	0.670251	0.678439	0.684033	0.693534	0.699004	0.704248	0.712579	0.718577	0.719248	0.734601	0.739729	0.741488	0.754524	0.758590	0.765004	0.770325	0.776247	0.781164	0.791947	0.796097	0.796616	0.806684	0.803469	0.813161	0.815103	0.816042	0.822625	0.817477	0.823746	0.827968	0.822881	0.823322	0.828572	0.824074	0.820458	0.817235	0.810459	0.813129	0.812095	0.807252	0.799946	0.796926	0.785896	0.787456	0.782002	0.776812	0.769715	0.761047	0.752861	0.750871	0.736419	0.732486	0.724160	0.713849	0.706212	0.701163	0.691344	0.684642	0.674845	0.663739	0.658837	0.654816	0.643936	0.635298	0.629226	0.620467	0.614880	0.613365	0.601593	0.596410	0.589436	0.581744
0.525045	0.521702	0.529683	0.524838	0.527917	0.533308	0.534417	0.534423	0.535736	0.536637	0.542127	0.544242	0.547452	0.547787	0.548273	0.552178	0.555213	0.557958	0.567995	0.563979	0.570297	0.573055	0.576363	0.574720	0.580780	0.587584	0.585324	0.590392	0.597055	0.600818	0.602034	0.606797	0.609557	0.615211	0.616245	0.625198	0.626651	0.627559	0.635488	0.633739	0.644163	0.646137	0.647674	0.654819	0.662164	0.663309	0.669344	0.676306	0.677393	0.687971	0.686298	0.696775	0.694527	0.701947	0.707400	0.712877	0.722021	0.721650	0.726291	0.731865	0.732631	0.734974	0.745947	0.745491	0.754758	0.760842	0.765542	0.764708	0.774969	0.772717	0.781526	0.781367	0.788283	0.789247	0.791090	0.795279	0.799951	0.800216	0.800790	0.803777	0.806060	0.805347	0.810338	0.803468	0.811479	0.811008	0.810055	0.811643	0.814922	0.810138	0.812680	0.813034	0.811151	0.813599	0.811748	0.812080	0.810159	0.813133	0.806005	0.805613	0.802761	0.801741	0.800999	0.797312	0.790460	0.796801	0.788032	0.787442	0.787854	0.783369	0.779652	0.777922	0.773847	0.768517	0.768904	0.766488	0.757761	0.761792	0.749366	0.752675	0.745962	0.740183	0.736677	0.732087	0.730134	0.722776	0.724086	0.713434	0.712167	0.708127	0.702489	0.699288	0.691984	0.684419	0.684102	0.675947	0.669588	0.665348	0.665189	0.654666	0.648220	0.644743	0.639238	0.637427	0.635395	0.626270	0.626400	0.620348	0.614170	0.608512	0.596879	0.600951	0.597228	0.592009	0.583435	0.583075	0.575372	0.574687	0.570972	0.566384	0.560213	0.565035	0.556282	0.558070	0.551752	0.548651	0.546928	0.541370	0.544586	0.536338	0.532377	0.538099	0.534197	0.530633	0.528434	0.529365	0.524807	0.524222	0.524800	0.522548	0.523860	0.521308	0.517706	0.515641	0.515942	0.516320	0.515315	0.510590	0.508673	0.510974	0.517089	0.514842	0.509621	0.513807	0.510865	0.509196	0.507153	0.508448	0.513581	0.508550
0.528033	0.534253	0.533674	0.538327	0.539645	0.537135	0.542861	0.549659	0.552419	0.551794	0.559722	0.557163	0.559612	0.566307	0.570398	0.573098	0.570417	0.574506	0.576971	0.580234	0.584546	0.584807	0.589982	0.594897	0.592856	0.597398	0.597230	0.600434	0.607594	0.604786	0.609984	0.614293	0.612883	0.618794	0.618868	0.624830	0.621833	0.626304	0.632467	0.624175	0.630434	0.631628	0.630936	0.635837	0.636121	0.632574	0.635964	0.633803	0.641031	0.638825	0.636902	0.640963	0.640825	0.637639	0.642293	0.635176	0.642160	0.642193	0.642987	0.641327	0.647773	0.645018	0.648805	0.646153	0.644809	0.645882	0.650519	0.652549	0.653240	0.652107	0.661702	0.660316	0.664889	0.662944	0.665340	0.665817	0.671065	0.671313	0.675590	0.679750	0.686982	0.696803	0.696522	0.698010	0.703593	0.699641	0.711820	0.717319	0.723203	0.728544	0.733020	0.739097	0.746823	0.753599	0.755984	0.763101	0.773005	0.774536	0.781497	0.788838	0.796037	0.795582	0.804344	0.809466	0.814772	0.814611	0.822234	0.824365	0.834475	0.835720	0.835035	0.834913	0.842711	0.842129	0.846473	0.843851	0.847135	0.845348	0.848320	0.853095	0.848171	0.846237	0.839313	0.839039	0.836912	0.835310	0.830709	0.823926	0.822819	0.821324	0.808469	0.806844	0.800155	0.793007	0.788129	0.786930	0.765802	0.762704	0.753289	0.748474	0.743040	0.732246	0.726809	0.720220	0.707978	0.699242	0.694029	0.685893	0.676051	0.666231	0.660898	0.656837	0.653111	0.641063	0.632242	0.623079	0.619217	0.611269	0.605297	0.597131	0.596990	0.590705	0.584847	0.580409	0.575077	0.568833	0.566993	0.564827	0.555232	0.551701	0.550750	0.548096	0.545885	0.542765	0.536236	0.537232	0.536095	0.532532	0.527746	0.527443	0.524699	0.528588	0.523002	0.523362	0.516374	0.516118	0.520942	0.511610	0.513167	0.515072	0.515698	0.512333	0.515597	0.518465	0.515732	0.506833	0.507632	0.507134	0.513208	0.511398
0.502624	0.504131	0.507944	0.505857	0.510615	0.507483	0.508329	0.513056	0.510558	0.511534	0.517346	0.514660	0.517351	0.513936	0.519194	0.522772	0.518600	0.518623	0.516621	0.518862	0.522777	0.524412	0.530553	0.524000	0.524859	0.526857	0.533324	0.528942	0.533240	0.534709	0.535465	0.535579	0.537554	0.543744	0.546544	0.543576	0.544614	0.549541	0.549160	0.554549	0.551920	0.558402	0.560966	0.555773	0.564591	0.566765	0.570255	0.572362	0.576339	0.575206	0.578626	0.579300	0.583163	0.589818	0.590728	0.587381	0.593728	0.601370	0.600352	0.604069	0.611033	0.611112	0.616772	0.617075	0.623258	0.622699	0.629762	0.634167	0.634928	0.638451	0.640686	0.640160	0.646316	0.644866	0.650898	0.657183	0.662382	0.668485	0.665226	0.668408	0.673960	0.674578	0.682230	0.685327	0.693793	0.691216	0.696980	0.698183	0.698532	0.704653	0.707610	0.712657	0.716137	0.716774	0.721959	0.723850	0.725760	0.729665	0.732605	0.736807	0.739396	0.745657	0.744203	0.748691	0.750908	0.755843	0.757107	0.755929	0.763627	0.764420	0.767662	0.765328	0.768107	0.770501	0.774029	0.775431	0.773540	0.772388	0.780994	0.784037	0.780884	0.783223	0.777440	0.783918	0.783601	0.783728	0.780974	0.786611	0.782482	0.782658	0.777954	0.779301	0.776974	0.782917	0.779041	0.780036	0.773972	0.780643	0.776056	0.777933	0.770929	0.770174	0.764640	0.768622	0.764739	0.759241	0.758974	0.759178	0.751330	0.754351	0.747052	0.747832	0.737104	0.739860	0.739121	0.731070	0.734164	0.728002	0.722840	0.722124	0.716227	0.715249	0.711786	0.703622	0.698407	0.689779	0.695012	0.682618	0.685488	0.682465	0.671016	0.668146	0.666898	0.661192	0.653988	0.648589	0.640035	0.641196	0.633520	0.627825	0.624287	0.619666	0.611325	0.609985	0.599890	0.601805	0.595378	0.588313	0.586309	0.578356	0.581824	0.573255	0.569909	0.566671	0.559552	0.557871	0.551746	0.550150	0.551261	0.540905
0.551153	0.550761	0.553739	0.557267	0.560887	0.565100	0.570686	0.572573	0.571959	0.582676	0.586350	0.587933	0.595200	0.599916	0.599034	0.602728	0.610495	0.616614	0.617735	0.622636	0.627052	0.633616	0.634149	0.632669	0.641416	0.647391	0.650040	0.652420	0.659944	0.655390	0.662491	0.663899	0.667778	0.668084	0.669872	0.675497	0.673939	0.675422	0.674475	0.676626	0.675639	0.679488	0.677913	0.681878	0.674506	0.680203	0.676479	0.671200	0.673062	0.667940	0.659739	0.668253	0.667246	0.659863	0.656409	0.652671	0.649792	0.647658	0.647357	0.640756	0.637056	0.634918	0.627016	0.626314	0.621140	0.619634	0.614701	0.615383	0.607355	0.603211	0.600762	0.599238	0.589904	0.592155	0.589438	0.584422	0.584884	0.581523	0.575474	0.575153	0.568384	0.564431	0.566116	0.565126	0.562909	0.562290	0.561048	0.556470	0.558675	0.555280	0.554392	0.552894	0.558785	0.552820	0.554449	0.551413	0.547823	0.551957	0.556782	0.549288	0.554749	0.558126	0.555501	0.555603	0.557182	0.564248	0.565647	0.562767	0.567744	0.572227	0.570913	0.577908	0.579231	0.579966	0.581302	0.583421	0.588533	0.590865	0.601966	0.606746	0.612961	0.614133	0.620251	0.623864	0.629534	0.632260	0.644773	0.645533	0.653698	0.663804	0.666931	0.672382	0.678860	0.686471	0.687428	0.696809	0.703655	0.710540	0.715309	0.723668	0.732839	0.737309	0.740214	0.740223	0.753744	0.758242	0.758058	0.766177	0.769487	0.774359	0.776621	0.780676	0.785396	0.786036	0.793659	0.788619	0.789302	0.791165	0.793614	0.796043	0.787542	0.785765	0.785602	0.782717	0.783059	0.779032	0.779307	0.776623	0.770245	0.769342	0.757103	0.754600	0.746998	0.745290	0.740427	0.739827	0.729686	0.722182	0.712623	0.709512	0.702971	0.696413	0.685457	0.681470	0.669826	0.665890	0.658977	0.658278	0.644973	0.643656	0.631080	0.626092	0.618531	0.613874	0.604873	0.602263	0.591037	0.583924	0.583073	0.577139
0.515974	0.516280	0.512782	0.516977	0.518916	0.521793	0.522029	0.520550	0.523153	0.528168	0.531179	0.529956	0.536121	0.536045	0.533009	0.537646	0.543855	0.538651	0.544320	0.551105	0.545853	0.551066	0.557828	0.560031	0.560204	0.568814	0.568649	0.570098	0.571901	0.580282	0.582204	0.588894	0.593256	0.595036	0.598127	0.604268	0.607302	0.615554	0.620232	0.630416	0.625834	0.635438	0.640175	0.646817	0.652677	0.656093	0.663655	0.670850	0.678175	0.681851	0.691738	0.691584	0.700942	0.712113	0.717578	0.722628	0.725381	0.734751	0.734906	0.748811	0.750878	0.759091	0.764512	0.771867	0.777253	0.781942	0.791689	0.796257	0.800344	0.806162	0.814593	0.809388	0.809678	0.819846	0.819954	0.830073	0.829318	0.826975	0.832830	0.832124	0.836315	0.832324	0.832177	0.831180	0.831143	0.830566	0.825862	0.830166	0.826558	0.822393	0.823041	0.824795	0.816420	0.810458	0.812324	0.805397	0.801020	0.797571	0.792353	0.787204	0.783660	0.777522	0.772099	0.767084	0.765892	0.758432	0.753285	0.747378	0.743141	0.737345	0.738206	0.729469	0.727937	0.717330	0.716134	0.712127	0.704200	0.701332	0.697315	0.690967	0.689512	0.685493	0.682925	0.675364	0.674728	0.667959	0.668592	0.667452	0.658945	0.658532	0.656859	0.651158	0.650083	0.645505	0.642358	0.640520	0.637008	0.636067	0.633689	0.632519	0.632230	0.629716	0.629980	0.623226	0.617999	0.620611	0.618325	0.619981	0.615971	0.615416	0.612908	0.611281	0.602628	0.607045	0.604715	0.602184	0.603077	0.598795	0.596666	0.601858	0.594789	0.588751	0.592677	0.586831	0.583613	0.584303	0.576188	0.576694	0.575010	0.576364	0.578156	0.565755	0.566614	0.567044	0.565360	0.565518	0.562042	0.561379	0.554207	0.558996	0.552757	0.548406	0.550138	0.545398	0.545954	0.541602	0.547823	0.539399	0.535201	0.539707	0.535295	0.532130	0.527485	0.526975	0.531057	0.525004	0.521640	0.519019	0.521491	0.518650
0.495982	0.501026	0.500808	0.499023	0.507899	0.502732	0.497628	0.503944	0.505355	0.503963	0.505081	0.502988	0.505418	0.508836	0.505855	0.507430	0.508374	0.505263	0.510567	0.504306	0.503789	0.506731	0.507427	0.506386	0.511216	0.512409	0.513130	0.513099	0.516424	0.519027	0.511937	0.517827	0.519271	0.519924	0.520153	0.526600	0.527321	0.527877	0.531183	0.533350	0.532372	0.535435	0.538492	0.540545	0.545175	0.538720	0.548780	0.552507	0.554278	0.558420	0.560660	0.565336	0.564107	0.571631	0.571821	0.574438	0.582693	0.585275	0.586497	0.596247	0.595065	0.601107	0.609762	0.610521	0.613878	0.621387	0.625785	0.631934	0.635948	0.643181	0.648234	0.655395	0.664486	0.664047	0.669185	0.677329	0.687023	0.689893	0.701502	0.703506	0.710027	0.713326	0.722489	0.728543	0.740762	0.746353	0.752461	0.760280	0.765574	0.773884	0.780066	0.784878	0.794928	0.807516	0.812196	0.818794	0.824704	0.829011	0.838578	0.843055	0.850203	0.855403	0.866446	0.868643	0.873997	0.880409	0.881328	0.889429	0.892588	0.894001	0.900638	0.899782	0.904784	0.908219	0.906896	0.907714	0.907359	0.905762	0.903112	0.907846	0.905881	0.901439	0.898991	0.893578	0.890513	0.886225	0.878319	0.874258	0.869707	0.860190	0.862435	0.849133	0.846843	0.837986	0.828424	0.819086	0.812133	0.804619	0.795709	0.783901	0.772583	0.765467	0.759726	0.746150	0.736852	0.729106	0.723760	0.708122	0.704937	0.693675	0.679394	0.667330	0.663408	0.654980	0.648428	0.638518	0.630708	0.620624	0.614628	0.604840	0.600361	0.599491	0.594638	0.586473	0.577237	0.569888	0.570812	0.559332	0.559994	0.551887	0.547973	0.546497	0.540131	0.531950	0.533904	0.527191	0.529289	0.521630	0.520775	0.517957	0.514495	0.512628	0.509977	0.507726	0.510095	0.505877	0.504306	0.510090	0.503202	0.498870	0.502753	0.496641	0.497524	0.497594	0.497059	0.494168	0.492203	0.495369	0.489967	0.499121
0.515594	0.521093	0.521851	0.516944	0.524188	0.520113	0.525902	0.525533	0.530011	0.531062	0.529515	0.534104	0.534971	0.535173	0.538381	0.542929	0.544283	0.543641	0.544254	0.546818	0.549155	0.550636	0.553479	0.559041	0.558012	0.561439	0.558458	0.565576	0.567204	0.567687	0.571036	0.566773	0.574000	0.577428	0.578706	0.573004	0.577334	0.581860	0.582418	0.586196	0.587980	0.588753	0.587852	0.586740	0.592658	0.592259	0.594806	0.597034	0.594771	0.594751	0.597492	0.598829	0.604826	0.604904	0.605673	0.604757	0.609988	0.606969	0.611779	0.608058	0.613575	0.615202	0.613053	0.616519	0.616897	0.622927	0.623119	0.621213	0.632762	0.630306	0.629672	0.630445	0.631266	0.634490	0.639585	0.638947	0.641715	0.648032	0.649639	0.646839	0.651982	0.654060	0.657130	0.659088	0.663183	0.661550	0.668722	0.671342	0.673758	0.673763	0.678814	0.679826	0.684319	0.686366	0.687537	0.691470	0.693718	0.703666	0.706262	0.701531	0.712545	0.712701	0.713575	0.719738	0.716612	0.724319	0.728540	0.731512	0.730156	0.730553	0.739048	0.739371	0.741043	0.746490	0.742606	0.750864	0.751760	0.752764	0.757780	0.758562	0.759649	0.756935	0.763443	0.762127	0.766266	0.760938	0.764106	0.763304	0.767619	0.767690	0.767317	0.765162	0.762950	0.764138	0.768387	0.764063	0.763100	0.761338	0.764772	0.765175	0.763829	0.763705	0.758693	0.758387	0.757993	0.755028	0.751191	0.751925	0.747364	0.748466	0.745926	0.738872	0.739337	0.735045	0.735227	0.731878	0.726371	0.724690	0.721556	0.719198	0.711167	0.711561	0.710221	0.705074	0.694528	0.696846	0.689829	0.682676	0.685054	0.677716	0.675389	0.669342	0.666280	0.661047	0.651616	0.649690	0.646196	0.641342	0.634482	0.635287	0.627248	0.616530	0.617946	0.614116	0.608486	0.594576	0.600383	0.589042	0.586696	0.582410	0.574575	0.568774	0.570200	0.566813	0.564088	0.560657	0.553141	0.549793	0.542840	0.544794
0.533742	0.536692	0.542349	0.543308	0.546126	0.545844	0.549274	0.550995	0.554372	0.558166	0.558587	0.562995	0.568935	0.570429	0.571267	0.577744	0.579634	0.583871	0.585271	0.588518	0.590090	0.594071	0.601327	0.605216	0.603394	0.607324	0.606632	0.611343	0.616480	0.621410	0.618719	0.622502	0.620860	0.627720	0.626710	0.626333	0.636005	0.628250	0.634123	0.637745	0.638254	0.640327	0.634925	0.637360	0.640320	0.636999	0.642305	0.635161	0.639247	0.640205	0.640767	0.638920	0.636523	0.638504	0.638877	0.637059	0.630979	0.634998	0.632779	0.630982	0.636183	0.633271	0.633339	0.632342	0.624930	0.628575	0.628059	0.627629	0.626358	0.621990	0.620871	0.627450	0.625013	0.622609	0.624113	0.621865	0.621283	0.625568	0.626638	0.623059	0.627778	0.626268	0.631107	0.632330	0.637584	0.630816	0.637192	0.631477	0.635578	0.637514	0.641110	0.643282	0.646700	0.645164	0.650598	0.653912	0.654831	0.657439	0.661219	0.661861	0.667599	0.672289	0.675989	0.672435	0.679818	0.680276	0.683719	0.687350	0.692132	0.693935	0.698664	0.701231	0.702191	0.707772	0.707635	0.708419	0.705391	0.710613	0.718871	0.719808	0.718384	0.721198	0.728699	0.720036	0.730548	0.733693	0.736868	0.732799	0.732677	0.739070	0.736475	0.739010	0.739835	0.735900	0.741388	0.743909	0.744247	0.738997	0.745170	0.745930	0.746277	0.740887	0.742921	0.747321	0.741067	0.741960	0.742268	0.740881	0.737728	0.738184	0.742140	0.733983	0.733257	0.734564	0.729323	0.728244	0.724432	0.725820	0.719701	0.725421	0.717828	0.713172	0.710289	0.706904	0.707725	0.701864	0.692665	0.690388	0.683151	0.688566	0.681350	0.677998	0.671282	0.665748	0.660370	0.655086	0.655808	0.645325	0.642935	0.636129	0.627285	0.628644	0.625310	0.620865	0.609590	0.605614	0.605576	0.599581	0.598171	0.588230	0.586134	0.580119	0.580774	0.576167	0.569613	0.564303	0.559732	0.558923	0.555289	0.548931
0.504726	0.503198	0.507138	0.506913	0.506091	0.506299	0.510564	0.503965	0.507956	0.510204	0.505709	0.508388	0.506488	0.511562	0.510527	0.505663	0.516426	0.515233	0.510359	0.515392	0.520148	0.517427	0.515743	0.516904	0.522749	0.518720	0.520834	0.525471	0.527576	0.528076	0.527395	0.525952	0.534946	0.533147	0.539190	0.543200	0.541685	0.540439	0.543968	0.547465	0.547868	0.550369	0.554842	0.556328	0.561960	0.562444	0.566203	0.567067	0.574800	0.574756	0.577835	0.586629	0.585633	0.588588	0.590885	0.596034	0.595956	0.602118	0.607460	0.609438	0.613960	0.616039	0.619367	0.624236	0.629415	0.633921	0.636491	0.639744	0.642956	0.649921	0.651960	0.651295	0.658807	0.661231	0.664069	0.669627	0.670319	0.669347	0.675712	0.680407	0.684678	0.680200	0.682301	0.686391	0.687601	0.696312	0.693960	0.696814	0.701258	0.702119	0.704882	0.702615	0.702077	0.705606	0.713978	0.715473	0.712074	0.713057	0.717342	0.718305	0.719947	0.719709	0.718817	0.724671	0.722566	0.721885	0.727693	0.727582	0.728651	0.726814	0.738097	0.733640	0.734802	0.736583	0.741754	0.738418	0.740810	0.740273	0.743872	0.747440	0.744902	0.748546	0.753103	0.748228	0.748504	0.746069	0.752869	0.758658	0.757757	0.756326	0.753537	0.760290	0.759113	0.761426	0.760274	0.763670	0.764863	0.767735	0.770881	0.765270	0.767714	0.768155	0.770368	0.769873	0.762601	0.764626	0.766778	0.770911	0.765223	0.762022	0.767322	0.765098	0.765620	0.763099	0.761319	0.756184	0.756054	0.751566	0.750766	0.747016	0.746222	0.743400	0.740490	0.734654	0.727768	0.729044	0.727618	0.715845	0.717430	0.711617	0.707337	0.704356	0.694871	0.691890	0.681292	0.679936	0.675153	0.669222	0.666976	0.658949	0.652014	0.646129	0.640989	0.633602	0.629446	0.626376	0.623014	0.610772	0.607489	0.602184	0.599137	0.594086	0.591329	0.583015	0.579199	0.573839	0.570872	0.568348	0.565628	0.559565
0.574358	0.581734	0.587520	0.594099	0.598076	0.605281	0.609718	0.616545	0.623291	0.627072	0.631740	0.643428	0.648589	0.655690	0.663210	0.668389	0.678008	0.679619	0.690494	0.696968	0.702251	0.709988	0.714795	0.722058	0.724392	0.729900	0.738683	0.746886	0.752201	0.752642	0.757440	0.762083	0.765017	0.769670	0.769344	0.775309	0.779854	0.777296	0.779730	0.783450	0.781266	0.782575	0.784057	0.779386	0.779453	0.776728	0.772823	0.774406	0.769617	0.767623	0.767416	0.757085	0.755011	0.752477	0.749664	0.744173	0.742694	0.734331	0.726118	0.724672	0.713045	0.712732	0.706590	0.705814	0.695667	0.690384	0.676561	0.674617	0.671796	0.665180	0.659385	0.655885	0.651098	0.645482	0.631018	0.633279	0.628638	0.617005	0.613238	0.610853	0.608955	0.605379	0.599442	0.602012	0.595566	0.589182	0.584284	0.580679	0.583798	0.579398	0.576022	0.577479	0.570356	0.570827	0.570412	0.570776	0.569154	0.568096	0.566701	0.565053	0.568168	0.566950	0.569464	0.562869	0.565009	0.565892	0.565539	0.567442	0.573749	0.569191	0.571666	0.574707	0.575205	0.579047	0.576012	0.581815	0.580514	0.583312	0.584456	0.586664	0.587302	0.591197	0.598990	0.599042	0.605292	0.603722	0.608924	0.609147	0.613779	0.620641	0.622077	0.621331	0.626392	0.632775	0.630726	0.637270	0.640996	0.639988	0.645533	0.647993	0.652010	0.654579	0.656852	0.661930	0.664603	0.661537	0.663949	0.668048	0.672903	0.673915	0.674800	0.676872	0.679486	0.680002	0.684744	0.680668	0.679422	0.681320	0.683361	0.681384	0.678064	0.683327	0.680832	0.675387	0.671884	0.674149	0.666615	0.665350	0.670301	0.663105	0.663827	0.658289	0.658522	0.647648	0.649741	0.641306	0.638328	0.634595	0.629148	0.628188	0.625996	0.618720	0.609092	0.608779	0.604037	0.602094	0.595568	0.590151	0.590983	0.586160	0.581798	0.577336	0.577640	0.570273	0.564914	0.562160	0.564718	0.555519	0.554850	0.549031
0.505207	0.499729	0.506058	0.500295	0.508315	0.503887	0.509474	0.508679	0.502502	0.505862	0.505730	0.508159	0.505160	0.507658	0.512982	0.511343	0.506044	0.509669	0.512179	0.509393	0.512801	0.513010	0.516864	0.512519	0.516907	0.513709	0.516246	0.521586	0.520621	0.519348	0.522741	0.522211	0.522133	0.524145	0.527991	0.529182	0.527341	0.527385	0.533839	0.532513	0.535252	0.538678	0.537364	0.545238	0.540972	0.537798	0.543737	0.549973	0.548873	0.549871	0.553066	0.556823	0.555644	0.555842	0.560737	0.562140	0.564748	0.565035	0.565625	0.570102	0.571219	0.569768	0.572567	0.575352	0.577430	0.581748	0.587083	0.582502	0.587807	0.585494	0.591468	0.591904	0.591547	0.594762	0.597441	0.592557	0.600876	0.600607	0.597107	0.599332	0.605938	0.606134	0.604839	0.598499	0.608083	0.603091	0.605714	0.604961	0.604619	0.607660	0.605142	0.608859	0.607030	0.605441	0.609581	0.608706	0.603521	0.606438	0.613554	0.612854	0.612417	0.619509	0.615758	0.618591	0.616705	0.615116	0.618315	0.624832	0.624720	0.625609	0.631441	0.632254	0.630202	0.638286	0.642353	0.643144	0.647899	0.655418	0.653512	0.658514	0.668527	0.667317	0.679587	0.683303	0.691374	0.693107	0.704550	0.708330	0.716245	0.723641	0.728586	0.736253	0.748356	0.746931	0.756347	0.760659	0.770176	0.776798	0.784463	0.793778	0.805992	0.810541	0.814610	0.822056	0.826284	0.834392	0.837370	0.845795	0.847752	0.851145	0.856960	0.861930	0.864653	0.866531	0.869704	0.872382	0.874041	0.872185	0.872215	0.874968	0.875712	0.872203	0.868103	0.868898	0.860750	0.859855	0.859312	0.851265	0.843548	0.837593	0.831262	0.826125	0.819330	0.813813	0.805052	0.801171	0.790183	0.784784	0.771421	0.766129	0.755577	0.745249	0.733373	0.729485	0.716855	0.712370	0.701673	0.695072	0.686744	0.671722	0.672610	0.659231	0.654110	0.638531	0.634129	0.628534	0.623515	0.617898	0.607050	0.596998
0.584885	0.586118	0.594174	0.595056	0.602233	0.612818	0.617674	0.629769	0.628618	0.641669	0.646456	0.649978	0.657599	0.666908	0.674629	0.679955	0.680121	0.692929	0.703846	0.704613	0.715142	0.721819	0.725628	0.732038	0.737493	0.745089	0.754866	0.757466	0.766477	0.767518	0.775208	0.777166	0.785175	0.786359	0.786215	0.786052	0.791499	0.790548	0.792700	0.798328	0.795074	0.795810	0.796806	0.794188	0.796220	0.790562	0.788047	0.791055	0.784803	0.780728	0.774648	0.771893	0.764109	0.765216	0.758375	0.752593	0.745989	0.739945	0.730739	0.728739	0.719653	0.716037	0.701835	0.701474	0.698690	0.687580	0.687471	0.675046	0.667114	0.659080	0.656848	0.649307	0.640806	0.640873	0.633374	0.629568	0.622518	0.618105	0.608086	0.608790	0.600808	0.603143	0.595062	0.591077	0.591636	0.585516	0.577213	0.576488	0.571827	0.577397	0.571731	0.570579	0.568376	0.571492	0.565465	0.563273	0.563986	0.560659	0.564110	0.558200	0.559308	0.556697	0.561079	0.562873	0.564739	0.564258	0.565742	0.568518	0.567274	0.566802	0.567920	0.569372	0.568989	0.576647	0.576759	0.575313	0.578113	0.581868	0.584905	0.590018	0.589584	0.586701	0.599186	0.596126	0.600590	0.600691	0.601205	0.605439	0.608755	0.613897	0.622992	0.618051	0.624292	0.625465	0.630558	0.630070	0.635782	0.637348	0.646551	0.646108	0.650144	0.652683	0.657538	0.657600	0.656788	0.658806	0.665120	0.665037	0.664932	0.668951	0.666010	0.670345	0.673190	0.674780	0.676025	0.676129	0.674462	0.671495	0.675056	0.672232	0.680854	0.674727	0.666477	0.667096	0.671676	0.666640	0.666146	0.659382	0.662618	0.657203	0.649543	0.650942	0.646811	0.642991	0.641115	0.636413	0.636643	0.630627	0.630461	0.623747	0.620291	0.618625	0.607786	0.608051	0.601192	0.600819	0.593917	0.589395	0.589124	0.583032	0.576636	0.576787	0.570540	0.565293	0.567344	0.561597	0.559867	0.553858	0.555530	0.549987
0.513917	0.514489	0.511520	0.516833	0.516570	0.522505	0.514836	0.519872	0.520696	0.519950	0.522114	0.523803	0.526522	0.525187	0.523221	0.523715	0.532888	0.532119	0.530549	0.533703	0.537308	0.541242	0.537768	0.536095	0.534659	0.540091	0.542880	0.546475	0.545064	0.551678	0.550542	0.552234	0.549063	0.550762	0.554130	0.556041	0.556820	0.558874	0.565560	0.560355	0.564373	0.566405	0.563869	0.570540	0.566279	0.569018	0.564329	0.576125	0.576499	0.573572	0.577855	0.579923	0.577899	0.585773	0.586696	0.589189	0.586713	0.591875	0.598097	0.594193	0.602322	0.603286	0.606147	0.609217	0.611368	0.611163	0.612390	0.619482	0.626353	0.624744	0.627088	0.633839	0.637542	0.639600	0.648938	0.650239	0.652722	0.658401	0.661800	0.666327	0.678141	0.677724	0.677971	0.687290	0.693369	0.700618	0.705747	0.707242	0.722625	0.722182	0.730715	0.738117	0.743751	0.747123	0.756814	0.763201	0.769491	0.773957	0.781428	0.784829	0.793238	0.802451	0.803022	0.812495	0.814977	0.823807	0.828138	0.832649	0.835464	0.841431	0.842463	0.847841	0.849010	0.852463	0.853612	0.857678	0.859422	0.857454	0.858536	0.862226	0.859693	0.860010	0.858669	0.858742	0.856848	0.854263	0.848127	0.842841	0.844999	0.840616	0.832988	0.829745	0.825270	0.821484	0.814643	0.810738	0.799575	0.802387	0.789882	0.786022	0.778027	0.773339	0.763839	0.757724	0.749843	0.747273	0.740397	0.727745	0.725506	0.717485	0.708437	0.703859	0.693543	0.689269	0.688687	0.676637	0.670241	0.658246	0.656692	0.649626	0.645248	0.639405	0.638796	0.632101	0.623990	0.618524	0.612585	0.608982	0.604535	0.603243	0.598166	0.593513	0.590354	0.577927	0.573754	0.575393	0.573065	0.569715	0.566879	0.564174	0.556826	0.552946	0.551713	0.548833	0.547647	0.538970	0.536590	0.540021	0.537164	0.537467	0.531273	0.532116	0.530722	0.527260	0.526588	0.527766	0.519895	0.520885	0.516932	0.518588
0.507127	0.507545	0.507078	0.509472	0.510840	0.507163	0.505649	0.511615	0.512136	0.509172	0.509257	0.513372	0.513786	0.515165	0.512518	0.515275	0.520705	0.520541	0.517940	0.521306	0.519550	0.524222	0.523171	0.523755	0.520932	0.522741	0.526837	0.519489	0.523356	0.528102	0.525938	0.529096	0.530673	0.537126	0.535267	0.535919	0.536350	0.539746	0.535331	0.539602	0.540754	0.542139	0.543301	0.545624	0.545577	0.546174	0.546707	0.549860	0.551819	0.558018	0.557394	0.554403	0.556821	0.561653	0.560862	0.561884	0.565077	0.568267	0.571105	0.575805	0.573917	0.571623	0.574651	0.581543	0.589486	0.588644	0.585661	0.590210	0.596581	0.598095	0.604936	0.604670	0.606155	0.611594	0.613122	0.615816	0.626441	0.628406	0.635879	0.636543	0.635231	0.643002	0.645268	0.653061	0.657514	0.661307	0.667826	0.667117	0.671297	0.676722	0.683052	0.687256	0.698707	0.696991	0.703290	0.714245	0.719362	0.719436	0.722623	0.734138	0.736385	0.746251	0.750622	0.752407	0.756746	0.757439	0.765920	0.767856	0.771750	0.782995	0.782448	0.786485	0.794713	0.802976	0.801565	0.800051	0.804285	0.808822	0.807561	0.813819	0.816045	0.815193	0.820400	0.817299	0.814573	0.820121	0.821341	0.819109	0.823622	0.819788	0.823743	0.817020	0.820067	0.813754	0.816621	0.813155	0.814596	0.810829	0.810454	0.806394	0.803692	0.804230	0.798689	0.795149	0.789996	0.791583	0.788237	0.786886	0.784329	0.776156	0.776728	0.768505	0.768605	0.763463	0.758750	0.757947	0.754917	0.749759	0.743445	0.735229	0.733167	0.730682	0.719951	0.723997	0.716290	0.710047	0.699943	0.697529	0.690989	0.687833	0.684220	0.676307	0.673482	0.667220	0.664347	0.656451	0.652616	0.648167	0.645913	0.636359	0.627475	0.625066	0.621858	0.620103	0.611430	0.607984	0.596077	0.598507	0.592111	0.586057	0.583713	0.573258	0.572249	0.570426	0.565297	0.561308	0.552645	0.556341	0.549900	0.544910
0.511690	0.508692	0.508990	0.505913	0.508753	0.509607	0.516098	0.514481	0.514720	0.515990	0.516134	0.518463	0.518569	0.519870	0.513001	0.519586	0.521672	0.522595	0.520354	0.524050	0.530215	0.525879	0.527076	0.530579	0.529400	0.527451	0.532200	0.531096	0.531917	0.533312	0.532421	0.533336	0.536486	0.534594	0.538869	0.541150	0.535231	0.542061	0.539321	0.534098	0.537413	0.543403	0.543517	0.536364	0.540181	0.537363	0.539614	0.535717	0.542026	0.542587	0.537941	0.538037	0.539998	0.546440	0.541060	0.545030	0.541372	0.541484	0.547910	0.546220	0.544994	0.544227	0.548729	0.552872	0.550519	0.551434	0.552216	0.554288	0.552346	0.556565	0.560344	0.565466	0.565396	0.564161	0.567192	0.569790	0.572990	0.576737	0.576096	0.587289	0.590033	0.590535	0.592053	0.602979	0.603820	0.611430	0.610278	0.619253	0.626150	0.628036	0.632637	0.637977	0.642250	0.649007	0.648794	0.662235	0.667513	0.668846	0.679274	0.679354	0.693128	0.697557	0.702056	0.706490	0.712420	0.721279	0.724852	0.735214	0.734859	0.741774	0.744685	0.757371	0.761726	0.758557	0.768987	0.776775	0.779805	0.787682	0.784898	0.792310	0.798452	0.801323	0.808429	0.806908	0.816235	0.810897	0.819330	0.822632	0.823027	0.824329	0.824217	0.832512	0.829062	0.840702	0.834139	0.833419	0.842002	0.839498	0.839870	0.842646	0.842412	0.841179	0.839005	0.839962	0.840990	0.838600	0.839470	0.836010	0.836282	0.834907	0.833409	0.831414	0.827925	0.828127	0.827945	0.821940	0.818400	0.816017	0.811938	0.810351	0.804832	0.801316	0.794150	0.792814	0.785156	0.785049	0.774707	0.773888	0.765117	0.756095	0.754474	0.750946	0.742370	0.735038	0.727001	0.724337	0.715622	0.711575	0.705121	0.693790	0.687179	0.685562	0.673428	0.666141	0.660153	0.652000	0.648139	0.642333	0.637499	0.625560	0.622132	0.618564	0.610400	0.609139	0.600080	0.597169	0.587452	0.588960	0.582426	0.576253
0.509671	0.503074	0.505887	0.508060	0.509069	0.507125	0.506149	0.511307	0.505476	0.509764	0.508458	0.511775	0.511853	0.511137	0.512914	0.514598	0.517407	0.517405	0.515398	0.519480	0.518742	0.524061	0.525533	0.524031	0.523465	0.525451	0.531173	0.532323	0.536970	0.530660	0.539536	0.539653	0.538448	0.547224	0.542395	0.550186	0.550131	0.554042	0.558256	0.565703	0.565078	0.571453	0.572264	0.576705	0.576524	0.580357	0.585913	0.591120	0.595251	0.594376	0.601863	0.607435	0.610417	0.616277	0.620610	0.624809	0.627446	0.633334	0.633456	0.639516	0.643120	0.645957	0.654256	0.659331	0.663646	0.664959	0.670749	0.677467	0.678849	0.680230	0.678736	0.691385	0.688230	0.693085	0.697515	0.701116	0.699615	0.706291	0.707159	0.709042	0.714128	0.716722	0.712251	0.716770	0.716416	0.718507	0.716097	0.716152	0.717107	0.723934	0.723418	0.718909	0.721790	0.723590	0.720245	0.718822	0.719127	0.723003	0.720931	0.717979	0.717296	0.718451	0.720805	0.720618	0.720741	0.721707	0.711822	0.715470	0.719258	0.715573	0.714729	0.713902	0.718429	0.714132	0.712002	0.712774	0.710773	0.711632	0.714921	0.713607	0.718804	0.713263	0.717268	0.716356	0.719853	0.717961	0.722669	0.719344	0.721182	0.721270	0.725841	0.718141	0.724174	0.721464	0.730803	0.728720	0.729498	0.722620	0.733407	0.735588	0.728119	0.733781	0.730461	0.735616	0.735102	0.734177	0.734816	0.735925	0.733961	0.732680	0.735854	0.736875	0.734435	0.730535	0.728467	0.734338	0.726936	0.728418	0.722336	0.726300	0.716869	0.716317	0.715059	0.715097	0.705616	0.704026	0.700880	0.697778	0.695220	0.689922	0.684615	0.681330	0.677408	0.671686	0.671051	0.667180	0.659432	0.649777	0.647986	0.641125	0.635654	0.631833	0.625463	0.621129	0.618631	0.611081	0.606738	0.603414	0.598129	0.588599	0.583798	0.581963	0.580150	0.576397	0.564386	0.563339	0.558779	0.560518	0.554276	0.551259
0.564157	0.568128	0.574674	0.576590	0.584216	0.584012	0.591184	0.594756	0.602121	0.607240	0.613270	0.617249	0.624446	0.626569	0.631822	0.636709	0.640944	0.648638	0.654826	0.663844	0.663684	0.675004	0.679876	0.683567	0.684601	0.692828	0.700584	0.701676	0.707792	0.708170	0.713699	0.716667	0.719237	0.723508	0.724938	0.727659	0.726955	0.732378	0.737196	0.736649	0.736274	0.729071	0.735809	0.733006	0.732850	0.734738	0.733575	0.732629	0.728134	0.724153	0.717175	0.717042	0.718961	0.716368	0.711035	0.702721	0.705165	0.697731	0.694397	0.688672	0.686256	0.684357	0.681050	0.672332	0.666531	0.663631	0.662529	0.653849	0.644235	0.644701	0.640453	0.637186	0.629612	0.624321	0.623727	0.621660	0.619365	0.611007	0.613279	0.610360	0.607317	0.606149	0.604337	0.599969	0.598852	0.596814	0.594572	0.589852	0.588632	0.594052	0.593856	0.590184	0.586622	0.584349	0.588598	0.591896	0.592219	0.592447	0.588459	0.593722	0.590117	0.596220	0.598035	0.596502	0.595670	0.601772	0.599789	0.603601	0.604225	0.605375	0.604503	0.605214	0.612552	0.618260	0.613370	0.614531	0.620709	0.623518	0.624015	0.624426	0.631749	0.628856	0.630296	0.638513	0.644333	0.642442	0.640579	0.645273	0.645414	0.654118	0.649604	0.653072	0.651850	0.660759	0.664068	0.665813	0.666479	0.668913	0.671766	0.671526	0.678029	0.675922	0.675506	0.679121	0.681695	0.683516	0.682715	0.685325	0.690828	0.691131	0.687640	0.689927	0.690850	0.688143	0.693500	0.685722	0.686993	0.685675	0.687918	0.687108	0.686749	0.682330	0.678865	0.680853	0.670050	0.669184	0.671814	0.661566	0.668727	0.660548	0.657051	0.656296	0.649261	0.646010	0.645486	0.632200	0.629460	0.630144	0.625396	0.621379	0.622081	0.608389	0.604222	0.601707	0.596563	0.591741	0.587482	0.580417	0.581953	0.576448	0.572146	0.570207	0.563555	0.562377	0.553200	0.549222	0.553207	0.539991	0.539922	0.536371
0.556701	0.556854	0.558397	0.564714	0.572023	0.571141	0.577637	0.581893	0.584314	0.595814	0.593073	0.601031	0.604866	0.608310	0.614591	0.622356	0.628552	0.629576	0.636115	0.638391	0.647536	0.650116	0.660085	0.660436	0.667945	0.668031	0.675441	0.681839	0.683686	0.690633	0.696211	0.696659	0.703467	0.705322	0.705986	0.713514	0.711926	0.716724	0.719150	0.723471	0.722793	0.724847	0.727330	0.726951	0.732622	0.731039	0.728764	0.729696	0.732723	0.731716	0.729835	0.727515	0.721933	0.724976	0.725705	0.728627	0.723297	0.723193	0.721986	0.717730	0.715419	0.711389	0.713012	0.706235	0.708562	0.709488	0.707035	0.702785	0.695655	0.693162	0.694769	0.690328	0.686813	0.686362	0.677894	0.676762	0.674118	0.670857	0.674772	0.667738	0.663016	0.662170	0.658465	0.649594	0.653648	0.642475	0.641657	0.637542	0.635817	0.640587	0.630551	0.630879	0.621987	0.623634	0.616424	0.615942	0.619016	0.611079	0.608028	0.604821	0.609808	0.605260	0.599412	0.597341	0.597046	0.595480	0.595731	0.591181	0.588971	0.589024	0.592240	0.589535	0.587540	0.588654	0.593073	0.592044	0.593618	0.595589	0.595218	0.597580	0.597242	0.602648	0.600614	0.597746	0.606770	0.606265	0.614745	0.608946	0.617137	0.621934	0.622718	0.623637	0.630319	0.637286	0.636986	0.635059	0.649565	0.648260	0.651691	0.659451	0.660175	0.667592	0.669051	0.672543	0.672986	0.679948	0.677719	0.683971	0.685152	0.692047	0.693552	0.694503	0.700550	0.695710	0.700108	0.702291	0.704129	0.700403	0.703791	0.703583	0.705530	0.701622	0.697949	0.702643	0.698468	0.698557	0.694678	0.691910	0.692410	0.688126	0.685572	0.685341	0.680700	0.678061	0.669122	0.669590	0.663118	0.658576	0.648801	0.648003	0.648046	0.637522	0.630877	0.631617	0.625369	0.619301	0.616848	0.614557	0.600265	0.599611	0.599220	0.587912	0.584601	0.585162	0.580025	0.576472	0.573406	0.569388	0.566575	0.560414
0.565872	0.570920	0.576910	0.570339	0.587316	0.590147	0.595867	0.601599	0.603612	0.609579	0.617395	0.621150	0.623908	0.629020	0.637716	0.646013	0.651388	0.655903	0.661152	0.667936	0.671264	0.675129	0.689315	0.686680	0.694104	0.702476	0.702047	0.705416	0.710835	0.716017	0.722741	0.721929	0.725153	0.729575	0.729171	0.730685	0.735650	0.742225	0.737858	0.741660	0.736995	0.742617	0.742657	0.742050	0.740335	0.736877	0.736747	0.734299	0.731544	0.731388	0.730649	0.729898	0.722104	0.721979	0.718212	0.710588	0.711299	0.708268	0.702631	0.699665	0.687403	0.687051	0.689329	0.678681	0.678816	0.675608	0.670047	0.666741	0.665919	0.660830	0.663707	0.661834	0.657242	0.651614	0.653680	0.645543	0.645783	0.647139	0.643918	0.642744	0.647404	0.641118	0.644422	0.646840	0.642079	0.643133	0.650576	0.647149	0.651494	0.653658	0.654618	0.663531	0.664256	0.660776	0.667804	0.667032	0.675831	0.673355	0.679961	0.680403	0.687700	0.690179	0.690483	0.697108	0.698425	0.702262	0.709804	0.710637	0.713889	0.716862	0.717435	0.720124	0.719067	0.719195	0.724303	0.726288	0.724562	0.735324	0.730447	0.726552	0.732929	0.729077	0.730916	0.729856	0.728051	0.726676	0.728049	0.724520	0.723085	0.721129	0.713721	0.711118	0.709422	0.713004	0.707623	0.702997	0.701268	0.691284	0.689915	0.685884	0.680853	0.680275	0.672913	0.663805	0.663912	0.656917	0.652302	0.653701	0.647404	0.641977	0.635406	0.631027	0.624905	0.626612	0.619733	0.617179	0.613073	0.613235	0.603393	0.600099	0.597051	0.593907	0.590748	0.582979	0.579096	0.583883	0.573389	0.574786	0.566518	0.565931	0.563996	0.563072	0.557676	0.557999	0.554832	0.553116	0.552817	0.549775	0.541389	0.542840	0.539691	0.540232	0.538567	0.537679	0.532081	0.532875	0.527040	0.529522	0.528492	0.523869	0.525469	0.527121	0.521069	0.517129	0.518037	0.518010	0.518668	0.519901	0.514541	0.518234
0.514222	0.519320	0.518748	0.520616	0.522815	0.527412	0.525861	0.524487	0.525902	0.525591	0.533168	0.534528	0.532314	0.536325	0.536376	0.534046	0.544010	0.540062	0.542186	0.539573	0.543351	0.549096	0.550210	0.550036	0.552710	0.549795	0.555511	0.561002	0.560625	0.563023	0.561530	0.566595	0.569775	0.565641	0.563002	0.572157	0.567372	0.574814	0.571294	0.577122	0.581597	0.577453	0.576202	0.580528	0.577311	0.579658	0.582806	0.577587	0.580275	0.582977	0.585951	0.586471	0.589442	0.588070	0.590281	0.589975	0.592372	0.591583	0.594113	0.597593	0.598827	0.598160	0.603761	0.597672	0.602512	0.604920	0.603045	0.606519	0.612340	0.608986	0.617816	0.621413	0.623392	0.627518	0.626574	0.630130	0.637181	0.636306	0.644021	0.643454	0.647371	0.659164	0.664046	0.665927	0.671589	0.676126	0.683631	0.687281	0.692533	0.696903	0.703415	0.706010	0.712750	0.720727	0.724009	0.732480	0.740292	0.744972	0.754132	0.756055	0.764431	0.768197	0.775214	0.777486	0.785450	0.791537	0.791825	0.798651	0.803875	0.808370	0.810489	0.815087	0.817231	0.825868	0.826865	0.832398	0.831369	0.832290	0.828986	0.835373	0.835261	0.837016	0.831581	0.836961	0.831678	0.828366	0.830001	0.825629	0.825908	0.820463	0.820634	0.816496	0.809743	0.814397	0.809802	0.803786	0.801180	0.791077	0.787373	0.783360	0.778897	0.770073	0.769925	0.765969	0.757004	0.752288	0.746101	0.739975	0.729890	0.728805	0.727340	0.717265	0.708925	0.706377	0.700204	0.699772	0.685297	0.679703	0.677889	0.674583	0.667397	0.664145	0.660590	0.651030	0.641268	0.642875	0.637912	0.632312	0.628353	0.623396	0.619782	0.608627	0.612463	0.604222	0.597573	0.596228	0.591995	0.587707	0.583972	0.581401	0.572788	0.571659	0.565819	0.571045	0.561207	0.555594	0.554428	0.550872	0.548413	0.546884	0.543326	0.540342	0.538313	0.536285	0.535470	0.526775	0.529148	0.526411	0.528895	0.524098
0.570440	0.579194	0.582730	0.588962	0.592125	0.598747	0.605949	0.612308	0.614452	0.621301	0.632850	0.634993	0.646569	0.645726	0.656335	0.662752	0.672458	0.675143	0.678440	0.693030	0.696222	0.702306	0.708443	0.714887	0.720121	0.725844	0.737859	0.742322	0.746844	0.757354	0.761297	0.757393	0.765215	0.766677	0.772772	0.774441	0.785101	0.782625	0.788468	0.792002	0.790618	0.793851	0.795564	0.792389	0.793865	0.799623	0.800401	0.798314	0.796263	0.791248	0.793600	0.787691	0.791351	0.789913	0.783439	0.782594	0.781189	0.783189	0.781922	0.774115	0.771413	0.767786	0.764828	0.761499	0.754290	0.753556	0.749540	0.747064	0.748520	0.743724	0.736497	0.737389	0.732515	0.731655	0.726781	0.723459	0.723110	0.716313	0.712860	0.714465	0.710792	0.716369	0.706505	0.706250	0.703800	0.701477	0.698437	0.700575	0.695512	0.692571	0.693141	0.696071	0.690544	0.692077	0.690406	0.693201	0.689455	0.693532	0.689064	0.690675	0.684135	0.689874	0.687682	0.682201	0.685405	0.685695	0.683768	0.683624	0.679616	0.686318	0.680511	0.682674	0.675922	0.679647	0.676683	0.672963	0.676025	0.671311	0.670123	0.668469	0.669461	0.666009	0.658297	0.660977	0.653955	0.657130	0.654743	0.653785	0.651161	0.646339	0.640088	0.638844	0.634964	0.632213	0.630415	0.623398	0.621389	0.620846	0.616326	0.608224	0.605749	0.606237	0.600715	0.596916	0.590655	0.586202	0.588479	0.580773	0.579537	0.570505	0.575320	0.576566	0.570574	0.558843	0.565373	0.560141	0.549512	0.542594	0.553843	0.544452	0.542374	0.543353	0.538570	0.536009	0.531515	0.531779	0.530506	0.529258	0.528721	0.525817	0.526500	0.520960	0.525015	0.521109	0.519102	0.520547	0.516856	0.518803	0.519938	0.513529	0.513495	0.512254	0.517818	0.508081	0.513909	0.512157	0.514210	0.510495	0.509707	0.512624	0.506685	0.509542	0.503071	0.507583	0.503213	0.508617	0.506219	0.509018	0.510390	0.504567
0.503619	0.503152	0.507772	0.506454	0.503847	0.505804	0.501360	0.504596	0.508207	0.507533	0.513172	0.510351	0.506403	0.507956	0.511661	0.507415	0.507617	0.507264	0.509720	0.510517	0.513046	0.513403	0.509858	0.509898	0.510509	0.513040	0.514717	0.512986	0.511787	0.519731	0.513449	0.514637	0.520064	0.520021	0.518058	0.514894	0.516035	0.511684	0.523568	0.521729	0.517527	0.515671	0.517238	0.519293	0.519770	0.520492	0.521243	0.522392	0.519089	0.524545	0.519777	0.525180	0.526568	0.524045	0.524528	0.528062	0.531615	0.528059	0.530384	0.536250	0.534753	0.539063	0.542768	0.543328	0.546647	0.546765	0.550241	0.550750	0.560986	0.564310	0.565860	0.570047	0.573155	0.582705	0.587007	0.590262	0.596700	0.602659	0.609409	0.619193	0.623995	0.629287	0.634968	0.642660	0.649580	0.661827	0.673980	0.675917	0.686397	0.696564	0.710222	0.718451	0.719318	0.735967	0.743606	0.756479	0.765525	0.772441	0.784989	0.795498	0.802987	0.812660	0.824696	0.830377	0.841904	0.853802	0.858722	0.866621	0.874232	0.877251	0.891372	0.895986	0.901995	0.903771	0.911862	0.911504	0.915880	0.920533	0.923529	0.923075	0.923466	0.923541	0.925361	0.925241	0.924629	0.920624	0.915495	0.916684	0.913213	0.908318	0.908902	0.900719	0.892957	0.892842	0.882009	0.875643	0.869546	0.863174	0.855896	0.849347	0.837990	0.834094	0.823151	0.818676	0.805809	0.796843	0.792694	0.777930	0.776991	0.765132	0.756045	0.748488	0.739338	0.728594	0.724607	0.719442	0.710006	0.698918	0.690824	0.685690	0.679791	0.674333	0.661428	0.659336	0.654734	0.643436	0.639218	0.629597	0.624272	0.621746	0.615241	0.613701	0.600845	0.601373	0.600007	0.588125	0.589505	0.579079	0.581498	0.574525	0.565820	0.567377	0.563346	0.557982	0.554812	0.555635	0.552269	0.548890	0.544546	0.539195	0.538561	0.539177	0.532955	0.529338	0.529579	0.525264	0.521824	0.527678	0.523576	0.516275
0.526118	0.528991	0.531777	0.531618	0.538278	0.531536	0.530358	0.538294	0.540189	0.539009	0.541789	0.547766	0.549051	0.553916	0.550787	0.559064	0.555141	0.558170	0.560407	0.571212	0.563793	0.563634	0.572289	0.572634	0.576377	0.579883	0.575034	0.586727	0.586905	0.584538	0.586558	0.591031	0.590396	0.589669	0.598270	0.595714	0.593818	0.593278	0.598091	0.603109	0.601334	0.599049	0.601179	0.599530	0.599045	0.599989	0.600253	0.605977	0.600426	0.604866	0.601755	0.602183	0.604736	0.598624	0.602005	0.597616	0.601642	0.603982	0.599892	0.599671	0.600730	0.606131	0.603047	0.601994	0.597324	0.605622	0.603004	0.603636	0.604943	0.603858	0.603661	0.612488	0.611913	0.613309	0.613169	0.611590	0.616344	0.620383	0.619597	0.629107	0.629899	0.631952	0.638343	0.640555	0.646975	0.645860	0.649159	0.656854	0.665950	0.663537	0.671803	0.672553	0.680167	0.686528	0.693024	0.694905	0.705561	0.710686	0.716158	0.717331	0.728326	0.732862	0.736782	0.739374	0.750314	0.753281	0.760274	0.766548	0.769824	0.771317	0.778887	0.781925	0.782369	0.783887	0.785021	0.794526	0.798347	0.797949	0.802199	0.804968	0.802361	0.802733	0.803801	0.807013	0.805547	0.801303	0.805419	0.802799	0.803305	0.802008	0.799382	0.802879	0.797006	0.795926	0.791751	0.788819	0.783530	0.781988	0.779954	0.776592	0.771813	0.770884	0.760378	0.761912	0.749154	0.747260	0.745134	0.739716	0.739394	0.729291	0.726794	0.724146	0.715091	0.712121	0.708827	0.704678	0.697578	0.692083	0.691090	0.688010	0.677498	0.677423	0.675500	0.664362	0.657207	0.654995	0.651909	0.647063	0.644881	0.636058	0.634520	0.632884	0.621183	0.615748	0.609832	0.609534	0.604362	0.602550	0.598868	0.599003	0.591630	0.578742	0.582340	0.575271	0.575725	0.570758	0.570726	0.559391	0.559409	0.550538	0.551099	0.552600	0.547918	0.545523	0.541144	0.542059	0.535158	0.534639	0.528050	0.522208
0.511596	0.511578	0.518455	0.517035	0.516283	0.517846	0.518598	0.519749	0.526600	0.528569	0.525305	0.529004	0.530284	0.532007	0.532481	0.532579	0.534504	0.540342	0.540323	0.540338	0.545184	0.545864	0.546721	0.552584	0.552420	0.555517	0.561449	0.557278	0.565133	0.563766	0.569846	0.573141	0.575956	0.576134	0.583097	0.586122	0.591037	0.593779	0.594873	0.601068	0.600298	0.610103	0.613612	0.616623	0.624419	0.627661	0.626002	0.633680	0.634212	0.644030	0.643409	0.654914	0.655206	0.663957	0.662720	0.669372	0.676452	0.681279	0.679528	0.686565	0.696959	0.701078	0.705406	0.709193	0.713306	0.712969	0.726249	0.732145	0.738119	0.735688	0.739836	0.745355	0.748497	0.752271	0.757631	0.760811	0.764477	0.762868	0.772729	0.778506	0.777583	0.778727	0.782628	0.782617	0.782655	0.787458	0.788127	0.788665	0.791508	0.796357	0.791139	0.797727	0.790425	0.795606	0.795524	0.797842	0.801492	0.799733	0.799095	0.796307	0.800404	0.797739	0.797452	0.793969	0.794161	0.796479	0.791299	0.791298	0.791067	0.796648	0.787129	0.788387	0.785505	0.781064	0.784374	0.779771	0.773906	0.777024	0.771550	0.768434	0.768582	0.765380	0.764955	0.761354	0.753512	0.756069	0.748625	0.747851	0.741184	0.739676	0.729705	0.731283	0.724321	0.718296	0.720286	0.715222	0.713218	0.708470	0.702213	0.702609	0.691658	0.686450	0.686216	0.673456	0.669509	0.672030	0.667422	0.661777	0.657480	0.657838	0.652244	0.644613	0.638775	0.642862	0.634792	0.626906	0.627414	0.627096	0.618399	0.609681	0.613097	0.609149	0.605341	0.602929	0.599921	0.588447	0.590187	0.587848	0.583491	0.582966	0.577105	0.576923	0.568899	0.572036	0.566007	0.565467	0.560212	0.556078	0.557366	0.556024	0.552570	0.548965	0.549878	0.551366	0.542894	0.544668	0.541488	0.537282	0.537440	0.533896	0.533520	0.537132	0.532426	0.530466	0.525025	0.530656	0.525464	0.524489	0.517343	0.523953
0.536150	0.536122	0.539732	0.544895	0.545986	0.549810	0.555139	0.555523	0.557521	0.561472	0.567426	0.570638	0.571316	0.576316	0.578513	0.580384	0.585090	0.587541	0.589769	0.590867	0.603210	0.603628	0.602753	0.608272	0.613446	0.613797	0.617647	0.622794	0.622946	0.621213	0.628757	0.631883	0.631512	0.634773	0.635081	0.638099	0.639502	0.643456	0.643663	0.642269	0.647159	0.644716	0.648482	0.650182	0.647896	0.645080	0.648172	0.646567	0.647355	0.647253	0.645125	0.648680	0.648200	0.643312	0.644744	0.646826	0.645352	0.641512	0.639530	0.638124	0.638063	0.642565	0.643344	0.642511	0.639150	0.641131	0.639334	0.640823	0.644413	0.638956	0.646768	0.642577	0.644022	0.643612	0.647867	0.645044	0.647820	0.653087	0.652064	0.658900	0.659613	0.665170	0.669924	0.673338	0.674466	0.676513	0.683980	0.684096	0.690074	0.693341	0.699041	0.709029	0.713492	0.719859	0.724693	0.730046	0.736754	0.742832	0.744258	0.750257	0.752401	0.762466	0.764897	0.773648	0.775014	0.782900	0.788398	0.790273	0.793255	0.798074	0.802833	0.806313	0.809686	0.809546	0.807930	0.807360	0.815832	0.811835	0.813186	0.817072	0.813768	0.814871	0.815874	0.809397	0.809975	0.808521	0.804806	0.798620	0.801459	0.791629	0.789633	0.783536	0.782033	0.775348	0.774727	0.762030	0.756492	0.753737	0.748290	0.742775	0.733304	0.723396	0.718508	0.714600	0.705836	0.698641	0.696298	0.683978	0.681269	0.673072	0.665040	0.657031	0.653344	0.648636	0.640711	0.631563	0.626699	0.620226	0.619985	0.608647	0.605243	0.602043	0.602900	0.591277	0.587706	0.577384	0.583123	0.570747	0.570623	0.562571	0.561227	0.555786	0.557012	0.553730	0.555361	0.546092	0.543774	0.540944	0.539620	0.535779	0.532865	0.529642	0.524137	0.526895	0.528618	0.522633	0.521922	0.520665	0.517116	0.516374	0.516630	0.515917	0.516140	0.514025	0.515022	0.510462	0.508840	0.513716	0.503712	0.505126
