0.555491;0.557723;0.562189;0.567979;0.575032;0.579891;0.580310;0.589056;0.591564;0.593779;0.603924;0.607698;0.616117;0.614926;0.625063;0.629786;0.626861;0.635044;0.646870;0.651098;0.651776;0.658768;0.664854;0.672620;0.672947;0.679624;0.684665;0.690678;0.695489;0.699266;0.708014;0.712743;0.717110;0.718711;0.721409;0.725183;0.730453;0.732860;0.735887;0.740998;0.737607;0.740779;0.742773;0.745456;0.749760;0.750969;0.756439;0.755526;0.757377;0.756632;0.757783;0.758524;0.756006;0.754045;0.760471;0.760047;0.760986;0.759144;0.756796;0.753126;0.756098;0.759199;0.758770;0.751657;0.753513;0.747733;0.751112;0.751020;0.752500;0.749408;0.747902;0.745585;0.746008;0.741371;0.740875;0.740591;0.743024;0.736693;0.737088;0.732798;0.735116;0.733874;0.730627;0.730302;0.726519;0.723838;0.722248;0.722366;0.722065;0.721324;0.717968;0.711077;0.714427;0.716428;0.713634;0.708732;0.709007;0.707599;0.707074;0.704159;0.703290;0.704580;0.705722;0.700297;0.701093;0.693718;0.694942;0.698617;0.690160;0.694854;0.686216;0.684957;0.684022;0.684930;0.678482;0.684062;0.676530;0.676621;0.673955;0.670050;0.669734;0.670142;0.663994;0.664031;0.662608;0.655245;0.655031;0.650884;0.650069;0.647067;0.643439;0.639006;0.646020;0.637630;0.630088;0.628723;0.631627;0.624759;0.620038;0.617541;0.618304;0.614997;0.609455;0.609953;0.607384;0.605587;0.600284;0.599234;0.599788;0.592779;0.593792;0.587192;0.585233;0.584583;0.579271;0.576832;0.574848;0.570261;0.569709;0.566166;0.563264;0.564803;0.558608;0.557976;0.557274;0.556647;0.549557;0.549734;0.549509;0.547000;0.541911;0.541553;0.541329;0.537321;0.536665;0.532910;0.534364;0.535996;0.527988;0.529456;0.526809;0.524137;0.525372;0.523819;0.523951;0.519940;0.522814;0.517806;0.520914;0.515885;0.514956;0.512387;0.514533;0.514863;0.510016;0.511253;0.512960;0.508974;0.509930;0.511117
0.511651;0.509045;0.512874;0.511497;0.512537;0.512691;0.514459;0.512886;0.516603;0.520288;0.524023;0.521742;0.524459;0.529244;0.524266;0.523383;0.530016;0.527837;0.531115;0.532582;0.530150;0.537831;0.535048;0.537373;0.538967;0.543166;0.541418;0.547131;0.547001;0.550613;0.553592;0.552898;0.560138;0.565317;0.562484;0.569001;0.570435;0.572375;0.576290;0.580790;0.586014;0.586037;0.589537;0.587949;0.591509;0.600155;0.602751;0.607895;0.608664;0.616715;0.621956;0.622190;0.626463;0.627566;0.631000;0.637535;0.634992;0.647164;0.648740;0.652107;0.656447;0.657122;0.660528;0.667801;0.669642;0.673499;0.675204;0.677491;0.681680;0.684081;0.684578;0.685618;0.689618;0.689294;0.693263;0.690201;0.693705;0.700519;0.696538;0.696897;0.695575;0.694894;0.693262;0.694202;0.694720;0.693210;0.695440;0.687769;0.689453;0.685620;0.687001;0.684537;0.685283;0.678302;0.676417;0.676380;0.673202;0.671408;0.670480;0.663154;0.661095;0.664021;0.659732;0.656826;0.657240;0.651874;0.656330;0.651639;0.650414;0.648958;0.645907;0.649150;0.648602;0.651520;0.647185;0.643339;0.653757;0.647057;0.650291;0.648252;0.655999;0.656211;0.651220;0.660737;0.659141;0.665530;0.671542;0.670696;0.677625;0.673106;0.683141;0.686546;0.687504;0.698578;0.698267;0.704666;0.708158;0.715206;0.717545;0.722032;0.726544;0.733121;0.737679;0.740727;0.745326;0.749007;0.754343;0.753024;0.763007;0.760025;0.767193;0.770651;0.768397;0.772519;0.770788;0.775355;0.774630;0.781249;0.775826;0.774779;0.775607;0.776334;0.773839;0.770061;0.765439;0.764212;0.766361;0.762260;0.759152;0.753349;0.749105;0.742699;0.736745;0.733876;0.725955;0.719414;0.719928;0.711567;0.705089;0.695668;0.691973;0.681119;0.675852;0.672629;0.663766;0.663623;0.653377;0.645636;0.641272;0.634720;0.628026;0.622986;0.612134;0.606982;0.601584;0.600038;0.592598;0.584924;0.583409;0.575246
0.506186;0.504593;0.505788;0.504902;0.500606;0.505242;0.506476;0.507547;0.505922;0.506384;0.504983;0.507475;0.507363;0.510932;0.515108;0.520921;0.509994;0.515144;0.516168;0.517364;0.515167;0.522993;0.522644;0.522458;0.525245;0.526403;0.528809;0.522652;0.528790;0.532751;0.538644;0.538664;0.541087;0.538967;0.548561;0.550045;0.548097;0.551306;0.556869;0.561433;0.562889;0.564043;0.571250;0.578636;0.577295;0.580909;0.586022;0.591967;0.594697;0.599549;0.608965;0.606606;0.612737;0.618251;0.621463;0.629619;0.631479;0.641396;0.644367;0.652943;0.649623;0.656152;0.660522;0.667257;0.675799;0.677909;0.682947;0.687245;0.692327;0.697488;0.701080;0.701924;0.709470;0.714019;0.722669;0.720151;0.727396;0.734005;0.734906;0.741166;0.743526;0.744222;0.753892;0.750861;0.752898;0.752949;0.759581;0.757512;0.760682;0.769473;0.766568;0.770340;0.771276;0.769272;0.773841;0.782411;0.780155;0.778228;0.779629;0.779136;0.782272;0.781952;0.785289;0.787839;0.782199;0.787416;0.783451;0.789925;0.783867;0.787638;0.784486;0.780796;0.786938;0.783467;0.781942;0.782973;0.782149;0.778974;0.782080;0.777730;0.780417;0.776995;0.773914;0.773163;0.774664;0.773323;0.767583;0.761902;0.758755;0.758437;0.755690;0.754291;0.751469;0.749733;0.742257;0.739282;0.738979;0.738424;0.733154;0.731124;0.726426;0.716489;0.722684;0.715243;0.712521;0.710389;0.708616;0.702835;0.702934;0.697297;0.695747;0.689540;0.684740;0.680332;0.681440;0.674497;0.671885;0.663983;0.665238;0.660010;0.651269;0.652685;0.652409;0.647167;0.643055;0.645375;0.634580;0.629662;0.624746;0.620925;0.619054;0.615989;0.612117;0.607647;0.601944;0.598991;0.596312;0.595176;0.588293;0.590478;0.578856;0.578782;0.576012;0.573053;0.568852;0.567961;0.556890;0.553793;0.550709;0.553436;0.546523;0.548924;0.542928;0.540694;0.541523;0.527835;0.527980;0.532284;0.523060;0.528261
0.525232;0.530649;0.526162;0.529859;0.536423;0.539736;0.543057;0.542788;0.541164;0.551474;0.548823;0.551250;0.553046;0.553338;0.558004;0.560795;0.564640;0.571097;0.568732;0.577656;0.575747;0.582315;0.576994;0.592519;0.591460;0.593712;0.601040;0.603470;0.603377;0.610247;0.615286;0.615695;0.622088;0.622089;0.625460;0.629850;0.637966;0.642639;0.641567;0.653015;0.647047;0.654438;0.664836;0.667021;0.670767;0.673556;0.675852;0.676318;0.684658;0.683361;0.691750;0.695545;0.700820;0.705420;0.702596;0.712736;0.712263;0.725816;0.720667;0.727139;0.728149;0.729419;0.735708;0.732044;0.737862;0.739182;0.743072;0.743864;0.746218;0.750201;0.752147;0.748637;0.754055;0.753240;0.750489;0.755625;0.752764;0.751350;0.754362;0.757201;0.757465;0.746671;0.753892;0.744516;0.745392;0.741061;0.740350;0.733908;0.738506;0.733945;0.730234;0.721273;0.718579;0.719358;0.712979;0.705301;0.705117;0.698393;0.695687;0.696476;0.688187;0.687454;0.683476;0.673057;0.673116;0.670061;0.670452;0.658527;0.659047;0.652218;0.649071;0.645597;0.640712;0.640192;0.643883;0.634841;0.636212;0.634714;0.631053;0.629424;0.627020;0.626597;0.631206;0.630732;0.626930;0.623737;0.628533;0.625052;0.629154;0.624916;0.630652;0.629285;0.633009;0.636535;0.630536;0.632913;0.640684;0.638000;0.642972;0.647132;0.646052;0.645579;0.652620;0.648121;0.657020;0.655421;0.657357;0.655081;0.658850;0.662841;0.660665;0.667219;0.663165;0.669266;0.667445;0.665901;0.669026;0.671822;0.668718;0.666108;0.666469;0.661290;0.663054;0.657915;0.655839;0.653518;0.657036;0.654407;0.657028;0.648476;0.645779;0.645275;0.635556;0.633931;0.627653;0.628378;0.627879;0.619289;0.617752;0.616439;0.609584;0.600408;0.605435;0.596452;0.593741;0.590036;0.577035;0.582205;0.575399;0.569728;0.561858;0.563313;0.562948;0.554054;0.556548;0.548267;0.545020;0.546523;0.537877;0.540650
0.569272;0.574206;0.576141;0.576667;0.585475;0.590043;0.598811;0.598116;0.607592;0.618385;0.618642;0.623531;0.628237;0.633389;0.640869;0.647639;0.653865;0.657746;0.665539;0.669586;0.678231;0.680281;0.687176;0.695657;0.699506;0.703954;0.710607;0.712884;0.714013;0.723291;0.722892;0.723833;0.736940;0.736952;0.739584;0.742613;0.743484;0.747791;0.742578;0.747596;0.752254;0.747238;0.751023;0.750373;0.748987;0.744582;0.745757;0.745969;0.745645;0.743007;0.735289;0.735197;0.733386;0.733124;0.724988;0.723311;0.725304;0.714281;0.715385;0.705759;0.710082;0.701764;0.698371;0.695976;0.685974;0.679247;0.680878;0.677344;0.672593;0.663208;0.664708;0.660798;0.660437;0.656310;0.650548;0.649578;0.643778;0.637599;0.634557;0.634232;0.637744;0.632006;0.631308;0.629896;0.626393;0.624631;0.627612;0.633783;0.629115;0.626828;0.629841;0.629807;0.633002;0.630550;0.630851;0.632369;0.633040;0.637909;0.633027;0.630423;0.633979;0.639847;0.638654;0.639462;0.644738;0.646293;0.652372;0.650376;0.651213;0.657415;0.656097;0.659667;0.658898;0.659918;0.664857;0.666419;0.663873;0.669388;0.664297;0.670169;0.671338;0.671654;0.673456;0.676620;0.676053;0.674852;0.673245;0.678031;0.677837;0.677670;0.679810;0.678302;0.679735;0.678682;0.683633;0.678048;0.672128;0.679385;0.679488;0.675218;0.670654;0.678770;0.674757;0.672337;0.671594;0.674952;0.668725;0.668646;0.668638;0.672167;0.666930;0.660131;0.659052;0.660962;0.660199;0.657295;0.656275;0.652780;0.652376;0.645772;0.645687;0.644469;0.644949;0.639442;0.638128;0.631602;0.635388;0.627838;0.623901;0.624082;0.614286;0.618597;0.614090;0.611408;0.608464;0.607936;0.604514;0.598702;0.598331;0.588140;0.587852;0.589813;0.585540;0.581470;0.578866;0.579165;0.571163;0.564948;0.563644;0.562066;0.564728;0.557441;0.561032;0.556384;0.548026;0.547898;0.551677;0.545252;0.546950;0.537918
0.527171;0.532241;0.535283;0.531345;0.535768;0.540390;0.540542;0.542388;0.545487;0.547003;0.554785;0.549006;0.558411;0.557041;0.560741;0.564380;0.568664;0.571295;0.567552;0.577391;0.575157;0.583583;0.583913;0.580196;0.587234;0.594121;0.588786;0.595070;0.596935;0.596081;0.600588;0.598640;0.601668;0.607803;0.609009;0.610207;0.614247;0.614538;0.611315;0.615280;0.617295;0.620126;0.625871;0.622131;0.621433;0.622265;0.622162;0.621769;0.619914;0.617607;0.623482;0.625339;0.620573;0.625461;0.620680;0.618419;0.622215;0.623530;0.621549;0.625812;0.621380;0.620970;0.615825;0.618214;0.620405;0.617847;0.613515;0.612497;0.612754;0.616040;0.618752;0.616005;0.612043;0.611110;0.608885;0.607209;0.609779;0.606112;0.607687;0.612039;0.610080;0.609605;0.607059;0.605027;0.605972;0.610312;0.606077;0.607568;0.609024;0.611007;0.608084;0.605507;0.610613;0.609065;0.611457;0.609111;0.609481;0.610021;0.610940;0.613708;0.615317;0.615797;0.614643;0.618126;0.625031;0.619676;0.622021;0.625712;0.628230;0.625485;0.629137;0.635891;0.635556;0.640240;0.645394;0.649458;0.645669;0.650162;0.656816;0.660475;0.661992;0.666982;0.670486;0.675249;0.678159;0.683857;0.686700;0.697793;0.700341;0.702768;0.708223;0.707537;0.714417;0.720995;0.731423;0.730984;0.735960;0.740231;0.743695;0.746923;0.748692;0.758528;0.760487;0.765059;0.769708;0.770947;0.777772;0.781935;0.785039;0.782294;0.788997;0.788455;0.790031;0.790590;0.792716;0.791705;0.795153;0.792817;0.788987;0.794046;0.790638;0.793064;0.785299;0.785837;0.779131;0.777910;0.772736;0.767074;0.763841;0.760317;0.759762;0.751911;0.748274;0.743795;0.736681;0.732443;0.719810;0.716529;0.706922;0.702560;0.696111;0.689782;0.681284;0.670771;0.669344;0.661369;0.653875;0.638744;0.639977;0.633065;0.631717;0.624020;0.613984;0.608063;0.604368;0.597426;0.591426;0.585705;0.582146;0.572167
0.549305;0.554140;0.558773;0.560150;0.567607;0.575118;0.578806;0.581139;0.585831;0.586320;0.589702;0.595011;0.605857;0.605421;0.615229;0.614804;0.618182;0.622894;0.631557;0.632574;0.635642;0.644437;0.647457;0.655291;0.660449;0.663748;0.669323;0.669849;0.676719;0.682135;0.683234;0.691761;0.692121;0.696111;0.699665;0.702738;0.708779;0.709062;0.713541;0.713725;0.715365;0.717828;0.713500;0.723395;0.723927;0.722603;0.722369;0.729558;0.725270;0.725582;0.722048;0.729860;0.727857;0.728996;0.722162;0.722957;0.723473;0.717201;0.721779;0.719385;0.718814;0.720048;0.715494;0.713898;0.708975;0.713010;0.712042;0.706612;0.702292;0.700877;0.700891;0.700055;0.698324;0.695437;0.690710;0.688024;0.686755;0.679253;0.678665;0.677898;0.672133;0.679464;0.674250;0.668721;0.659753;0.659998;0.657867;0.658415;0.653256;0.658549;0.650094;0.644028;0.646481;0.643589;0.638891;0.640186;0.638986;0.630916;0.629738;0.623703;0.622116;0.627245;0.627235;0.622148;0.621497;0.620208;0.616205;0.615139;0.616931;0.615381;0.618271;0.618934;0.617862;0.612612;0.615798;0.611461;0.613382;0.614839;0.615019;0.616206;0.618971;0.614642;0.617317;0.617765;0.619913;0.621635;0.621400;0.628882;0.634840;0.632678;0.634921;0.635136;0.635892;0.642982;0.644590;0.645035;0.647558;0.652443;0.650373;0.653998;0.657950;0.657992;0.661759;0.666521;0.665453;0.671711;0.670364;0.674516;0.672618;0.674589;0.672674;0.681073;0.675118;0.677710;0.679741;0.680571;0.682646;0.682391;0.683501;0.678698;0.677706;0.676473;0.675394;0.673935;0.678498;0.670716;0.673546;0.669874;0.667357;0.664202;0.659043;0.654992;0.653547;0.645114;0.645218;0.640580;0.643119;0.633599;0.629748;0.620417;0.620888;0.613114;0.613881;0.608795;0.604340;0.600646;0.596092;0.593270;0.585684;0.583181;0.580810;0.574486;0.571147;0.567895;0.563368;0.558648;0.563195;0.555340;0.548926;0.549119
0.575333;0.587661;0.589298;0.594158;0.600388;0.608232;0.615920;0.619226;0.622616;0.633343;0.641105;0.647168;0.652011;0.657758;0.663428;0.673662;0.684642;0.689891;0.697492;0.698678;0.707381;0.714035;0.725111;0.728567;0.731487;0.740627;0.748202;0.756385;0.756567;0.762311;0.767971;0.771278;0.773384;0.778910;0.784475;0.782600;0.788345;0.788696;0.794833;0.787845;0.788696;0.794995;0.792151;0.796191;0.791310;0.789504;0.786298;0.784520;0.783943;0.774265;0.778005;0.769078;0.768207;0.762201;0.759630;0.755639;0.749420;0.741031;0.741168;0.737215;0.725648;0.721529;0.713327;0.713136;0.707452;0.694172;0.686445;0.685474;0.675789;0.676516;0.668120;0.662444;0.662155;0.648685;0.645078;0.641850;0.634689;0.631242;0.631428;0.626218;0.617377;0.617980;0.608742;0.607938;0.610069;0.602803;0.599869;0.600511;0.591592;0.592503;0.587087;0.585549;0.584738;0.585822;0.577993;0.577886;0.581054;0.575329;0.579206;0.576760;0.578029;0.585474;0.573868;0.578054;0.572749;0.580404;0.576154;0.575422;0.578604;0.580020;0.578053;0.578409;0.585104;0.588180;0.586538;0.587836;0.588024;0.594801;0.596012;0.595902;0.603275;0.599249;0.597882;0.605142;0.604772;0.606246;0.609052;0.617916;0.614630;0.623250;0.624649;0.624145;0.630977;0.637262;0.635023;0.640016;0.637882;0.640875;0.639468;0.647175;0.649653;0.656351;0.654460;0.654795;0.658455;0.661485;0.663057;0.663457;0.664678;0.669264;0.670653;0.667990;0.666999;0.670288;0.669653;0.678473;0.672497;0.674392;0.668203;0.672719;0.674450;0.672264;0.669912;0.666193;0.664227;0.664148;0.663671;0.660536;0.658813;0.655971;0.649032;0.653199;0.644966;0.641161;0.643826;0.636913;0.633760;0.627955;0.624923;0.620657;0.619143;0.615129;0.609254;0.608037;0.602881;0.598844;0.598682;0.591165;0.588051;0.585970;0.580570;0.574874;0.573928;0.570527;0.566182;0.564540;0.558399;0.560047;0.556547;0.549029
0.516324;0.518035;0.520894;0.522560;0.522050;0.523558;0.524699;0.530779;0.527349;0.528612;0.531711;0.529371;0.532837;0.534978;0.540164;0.540013;0.545133;0.538857;0.544003;0.545468;0.543932;0.546537;0.546889;0.558084;0.556997;0.555954;0.557678;0.561740;0.562226;0.562869;0.564981;0.567324;0.564944;0.569705;0.572107;0.574874;0.568931;0.573422;0.574047;0.577205;0.574185;0.579829;0.582113;0.579719;0.580690;0.585979;0.585825;0.589297;0.586200;0.586825;0.589161;0.591885;0.585266;0.586781;0.591668;0.594957;0.594921;0.596697;0.594936;0.601019;0.601072;0.603714;0.605491;0.604681;0.604756;0.607680;0.613796;0.612647;0.615802;0.615743;0.619490;0.621322;0.622138;0.622584;0.627897;0.629013;0.632717;0.636379;0.640485;0.642369;0.645804;0.651265;0.654931;0.665233;0.663699;0.666332;0.674840;0.680890;0.686292;0.688750;0.696504;0.702214;0.707812;0.710503;0.716976;0.718492;0.730557;0.728441;0.734269;0.741789;0.749997;0.752038;0.761833;0.762215;0.767337;0.772326;0.777732;0.780294;0.783061;0.788896;0.790375;0.802277;0.799760;0.805363;0.805901;0.806212;0.812036;0.812024;0.813674;0.816936;0.813960;0.818877;0.817462;0.811075;0.812958;0.817708;0.815092;0.810860;0.809654;0.811306;0.804579;0.806975;0.806537;0.800367;0.795589;0.789788;0.792611;0.783033;0.780774;0.777794;0.769389;0.771837;0.768164;0.764812;0.757442;0.744934;0.744823;0.744023;0.742845;0.737892;0.727389;0.721160;0.716364;0.715947;0.709617;0.705042;0.698739;0.698112;0.692162;0.686337;0.680481;0.676083;0.670398;0.665889;0.657881;0.652674;0.651687;0.647623;0.638549;0.637086;0.629391;0.625272;0.618427;0.614433;0.611928;0.614692;0.597966;0.600358;0.597963;0.591041;0.590776;0.585852;0.581349;0.572832;0.566908;0.566884;0.564412;0.561998;0.559902;0.557780;0.553418;0.547867;0.541621;0.545396;0.542535;0.536857;0.539145;0.530243;0.528119;0.530947
0.513005;0.518020;0.517115;0.522159;0.522064;0.519973;0.527922;0.523781;0.530267;0.531891;0.523198;0.528387;0.532905;0.533501;0.536738;0.534803;0.539444;0.537846;0.542550;0.544041;0.547803;0.553409;0.551487;0.550270;0.553001;0.554142;0.558680;0.556847;0.563671;0.563455;0.563341;0.567145;0.571890;0.570349;0.572792;0.576937;0.581350;0.579795;0.583025;0.582158;0.581415;0.587483;0.592182;0.595073;0.592935;0.599720;0.601393;0.596075;0.603779;0.609648;0.611761;0.610429;0.618823;0.617302;0.614783;0.616468;0.621115;0.622708;0.625757;0.626597;0.631048;0.631835;0.633602;0.635794;0.640317;0.639723;0.644258;0.641965;0.643570;0.647183;0.651016;0.651726;0.650833;0.656817;0.660618;0.663470;0.660297;0.664000;0.664805;0.672001;0.667398;0.675683;0.673196;0.674921;0.677030;0.682856;0.680513;0.683283;0.686688;0.687022;0.688778;0.692053;0.691895;0.686593;0.691718;0.697857;0.698362;0.700494;0.703151;0.703646;0.709809;0.707757;0.711492;0.703575;0.709476;0.711813;0.715280;0.716941;0.716072;0.723338;0.715459;0.715457;0.722880;0.724513;0.729150;0.725166;0.728793;0.729815;0.728991;0.727499;0.729592;0.735329;0.732770;0.735113;0.739369;0.739718;0.737943;0.733969;0.738410;0.742142;0.741892;0.744100;0.746108;0.743785;0.748645;0.742234;0.742197;0.745726;0.739089;0.741431;0.742683;0.745285;0.743050;0.742159;0.737503;0.741600;0.736040;0.740181;0.739770;0.735960;0.738125;0.737667;0.729044;0.731849;0.725832;0.726848;0.722694;0.718966;0.717833;0.718403;0.710814;0.705339;0.705100;0.703605;0.699299;0.689397;0.689613;0.682455;0.680461;0.681482;0.669918;0.676739;0.665830;0.658672;0.653377;0.653491;0.643808;0.642777;0.633871;0.635862;0.623290;0.614156;0.621528;0.613964;0.601698;0.600135;0.595048;0.589617;0.587079;0.584240;0.578982;0.571460;0.569058;0.565846;0.560238;0.556756;0.553873;0.549801;0.547033;0.540591
0.559573;0.561283;0.567309;0.566612;0.569580;0.574306;0.577714;0.582821;0.590243;0.592539;0.598884;0.601787;0.606988;0.618779;0.611289;0.621655;0.628074;0.632995;0.638419;0.642985;0.647605;0.651801;0.661637;0.665984;0.666442;0.672629;0.675993;0.679331;0.681382;0.688645;0.686916;0.693342;0.694677;0.698872;0.701400;0.701975;0.707228;0.706880;0.709383;0.707888;0.704245;0.711415;0.709849;0.714612;0.711954;0.711137;0.707963;0.709595;0.706904;0.705800;0.705310;0.698581;0.695748;0.691668;0.695337;0.689165;0.691554;0.687856;0.683529;0.679459;0.680757;0.677918;0.671553;0.672776;0.665257;0.665796;0.660746;0.662119;0.660844;0.654540;0.654405;0.655288;0.652610;0.648101;0.644808;0.645111;0.643810;0.642965;0.639784;0.645430;0.642677;0.643345;0.640948;0.642802;0.641552;0.647452;0.645766;0.646674;0.648828;0.646794;0.654018;0.656662;0.658579;0.660147;0.665302;0.670150;0.666531;0.667855;0.672591;0.679536;0.684108;0.684246;0.689824;0.689286;0.700175;0.693655;0.696114;0.702211;0.703157;0.710056;0.709103;0.717707;0.717905;0.716925;0.721524;0.722689;0.725338;0.723184;0.724901;0.725449;0.726808;0.728921;0.728724;0.724759;0.728888;0.729308;0.727954;0.733181;0.726946;0.724815;0.726845;0.716553;0.721076;0.715564;0.713564;0.710941;0.709573;0.710817;0.706956;0.701632;0.703104;0.697644;0.695766;0.694798;0.689059;0.684532;0.681425;0.680071;0.677910;0.675997;0.672001;0.665973;0.664364;0.658945;0.657436;0.650996;0.652656;0.646616;0.645806;0.644411;0.633819;0.636506;0.630495;0.628273;0.624102;0.620039;0.615326;0.618559;0.610822;0.610890;0.599638;0.602435;0.595227;0.593213;0.593519;0.592089;0.582863;0.581997;0.575987;0.579376;0.570198;0.568767;0.568740;0.567255;0.558079;0.559549;0.558537;0.553568;0.555749;0.553573;0.550883;0.545699;0.545249;0.544007;0.543519;0.533654;0.537938;0.539972;0.531214;0.532231
0.555520;0.556290;0.567365;0.567978;0.570892;0.576631;0.577790;0.584346;0.586219;0.592583;0.599796;0.601341;0.602047;0.606664;0.613285;0.621928;0.624496;0.634432;0.641328;0.639450;0.641551;0.650660;0.651201;0.653228;0.664111;0.671683;0.673490;0.672050;0.682994;0.687762;0.682780;0.688968;0.698698;0.700615;0.701389;0.702353;0.705723;0.707108;0.706970;0.714737;0.713367;0.711237;0.717601;0.715884;0.713690;0.715783;0.719657;0.720844;0.717646;0.714659;0.716206;0.716941;0.717234;0.712790;0.710969;0.707476;0.708481;0.708952;0.700749;0.692402;0.697116;0.692661;0.688067;0.688342;0.686467;0.684044;0.684161;0.678754;0.673577;0.670344;0.672356;0.671080;0.666132;0.663782;0.662789;0.660607;0.655833;0.659499;0.655519;0.653211;0.643526;0.650900;0.647250;0.643180;0.646913;0.641853;0.632681;0.639785;0.639469;0.638656;0.636498;0.634677;0.633440;0.634245;0.631229;0.634757;0.630689;0.629917;0.628399;0.632388;0.631681;0.629365;0.631283;0.626679;0.634168;0.629934;0.630660;0.635993;0.631316;0.632460;0.631192;0.635893;0.630241;0.630959;0.637273;0.634808;0.640089;0.640456;0.641181;0.644669;0.645491;0.644125;0.651634;0.646516;0.644177;0.652152;0.649359;0.654075;0.657212;0.656141;0.658101;0.657905;0.659278;0.659127;0.661494;0.665794;0.670087;0.663559;0.667913;0.672046;0.672832;0.669073;0.675184;0.670456;0.675435;0.669188;0.674552;0.671882;0.670263;0.673434;0.674335;0.674584;0.673679;0.676657;0.680064;0.672790;0.675499;0.673298;0.673464;0.667758;0.670483;0.662290;0.665297;0.659699;0.654864;0.655145;0.656237;0.650060;0.648666;0.642647;0.638398;0.640315;0.637085;0.634869;0.622335;0.625639;0.618552;0.617417;0.614454;0.610031;0.605006;0.601095;0.597107;0.590116;0.590840;0.584429;0.575420;0.579776;0.573939;0.568853;0.565601;0.564398;0.559211;0.557920;0.553287;0.548943;0.546938;0.543170;0.538238;0.536593
0.577252;0.580676;0.580955;0.587366;0.598563;0.601627;0.606155;0.608085;0.620984;0.622518;0.627084;0.639262;0.650442;0.648289;0.659911;0.666389;0.672575;0.674473;0.684490;0.695027;0.697086;0.700465;0.705184;0.716211;0.726561;0.728227;0.736435;0.742328;0.744249;0.749294;0.762699;0.763158;0.764494;0.770320;0.774977;0.778382;0.775193;0.787535;0.786721;0.788211;0.789826;0.788768;0.789941;0.791192;0.791586;0.790121;0.793625;0.792970;0.789741;0.785249;0.793065;0.791755;0.781338;0.781997;0.777626;0.775297;0.774142;0.774980;0.771880;0.766267;0.761603;0.755452;0.755671;0.748486;0.744627;0.744070;0.735885;0.735125;0.727344;0.728098;0.722616;0.718898;0.715381;0.706892;0.705782;0.700537;0.697087;0.695883;0.696049;0.685703;0.682949;0.679486;0.677113;0.674385;0.671007;0.667102;0.665650;0.662727;0.656261;0.651995;0.650174;0.653707;0.647556;0.648691;0.642384;0.643266;0.637905;0.638535;0.635933;0.630458;0.633448;0.630982;0.626609;0.625007;0.625164;0.624855;0.620729;0.620495;0.615484;0.616746;0.618890;0.612216;0.612831;0.610384;0.612946;0.611690;0.612189;0.608750;0.612724;0.608356;0.608144;0.604381;0.603568;0.609115;0.604464;0.606537;0.609157;0.603664;0.603270;0.606899;0.600880;0.598849;0.598833;0.601813;0.598969;0.597537;0.602451;0.600000;0.599373;0.598447;0.596787;0.596102;0.589280;0.603841;0.594906;0.598353;0.593486;0.591510;0.598774;0.595588;0.590686;0.588103;0.595885;0.588940;0.588404;0.589255;0.588903;0.584454;0.585105;0.583366;0.583140;0.581995;0.577982;0.576998;0.571773;0.578395;0.570375;0.571868;0.570000;0.563290;0.565639;0.562020;0.562713;0.563249;0.555958;0.555705;0.549667;0.551603;0.550063;0.549793;0.543417;0.539346;0.542046;0.540382;0.535997;0.533916;0.528865;0.533818;0.527004;0.526007;0.523828;0.523115;0.518917;0.522573;0.517697;0.515048;0.507380;0.513114;0.511270;0.509118
0.547240;0.545609;0.552334;0.551128;0.556734;0.558659;0.571344;0.570441;0.570779;0.581114;0.576173;0.585058;0.585253;0.589791;0.599656;0.600086;0.602366;0.614388;0.611355;0.617591;0.626319;0.628859;0.636084;0.635569;0.639666;0.637880;0.645604;0.652507;0.656811;0.660439;0.663304;0.665268;0.672457;0.672085;0.673257;0.678428;0.678170;0.683995;0.683989;0.683580;0.689137;0.688128;0.692191;0.692057;0.698200;0.694345;0.694559;0.697959;0.697527;0.697601;0.698947;0.697155;0.695932;0.695770;0.701222;0.696359;0.695893;0.692156;0.693726;0.695731;0.695810;0.695531;0.691018;0.690219;0.688990;0.694830;0.682482;0.686471;0.681354;0.683156;0.684332;0.684796;0.680179;0.683530;0.680172;0.674432;0.677773;0.678716;0.673729;0.673526;0.677454;0.677051;0.675947;0.673595;0.678970;0.674054;0.676235;0.677988;0.676847;0.676732;0.671871;0.677787;0.675699;0.674486;0.675149;0.675936;0.673325;0.679108;0.678497;0.679734;0.676493;0.681980;0.679827;0.680536;0.682016;0.679065;0.682423;0.687739;0.683053;0.691474;0.687167;0.687857;0.685946;0.683968;0.689611;0.685531;0.688418;0.690577;0.687206;0.694169;0.691064;0.696445;0.689918;0.693376;0.696669;0.693364;0.690559;0.692880;0.689671;0.688071;0.692925;0.687882;0.692717;0.688938;0.685436;0.689236;0.684706;0.689041;0.688556;0.687233;0.685932;0.683545;0.683018;0.680918;0.682471;0.682734;0.673906;0.673801;0.675826;0.673294;0.674656;0.670296;0.667903;0.668957;0.667592;0.662312;0.657096;0.657921;0.660921;0.650676;0.650595;0.652322;0.640270;0.639115;0.639627;0.636307;0.636864;0.632067;0.631660;0.620033;0.623867;0.613713;0.612584;0.615087;0.609924;0.607115;0.603098;0.596845;0.596827;0.597701;0.588333;0.587430;0.579082;0.579414;0.573517;0.570636;0.566015;0.568937;0.566733;0.559839;0.557513;0.554368;0.549243;0.550529;0.544573;0.542894;0.540047;0.540136;0.538469;0.537253
0.565020;0.569846;0.576489;0.575055;0.585054;0.585111;0.594519;0.594869;0.601209;0.609845;0.610947;0.624262;0.623879;0.629990;0.635890;0.638712;0.649608;0.657931;0.666579;0.673951;0.678677;0.685110;0.690158;0.698048;0.702387;0.710045;0.710171;0.718628;0.724634;0.729979;0.735237;0.733305;0.745882;0.748715;0.757699;0.755975;0.761636;0.764956;0.772287;0.772427;0.770232;0.773350;0.777738;0.782530;0.783876;0.786835;0.788689;0.785647;0.789042;0.793456;0.785787;0.788848;0.789010;0.784728;0.792509;0.786326;0.785483;0.792109;0.783317;0.784751;0.783491;0.783073;0.779329;0.776720;0.774773;0.776025;0.772197;0.771828;0.771694;0.769374;0.759380;0.763150;0.759733;0.754712;0.757246;0.753274;0.750662;0.742421;0.748430;0.743893;0.741307;0.738373;0.736443;0.735331;0.729113;0.728423;0.721293;0.722232;0.723391;0.720897;0.715134;0.710046;0.711030;0.704687;0.706669;0.700710;0.700218;0.695966;0.691402;0.693285;0.691679;0.684835;0.682477;0.682538;0.677716;0.678483;0.673955;0.665976;0.670624;0.664555;0.659581;0.662926;0.653496;0.651467;0.649207;0.646532;0.646787;0.645703;0.640036;0.640174;0.636375;0.636766;0.634073;0.629596;0.622091;0.622159;0.620126;0.618688;0.617231;0.611434;0.608844;0.607127;0.601775;0.601544;0.598788;0.598317;0.592775;0.592479;0.587716;0.587375;0.583608;0.580418;0.577658;0.575169;0.575198;0.568618;0.569440;0.566075;0.569819;0.565488;0.558439;0.554053;0.556119;0.558016;0.551040;0.551239;0.547775;0.543010;0.545187;0.541506;0.537838;0.534980;0.534226;0.536482;0.531090;0.531274;0.531544;0.527315;0.530434;0.526484;0.523993;0.525080;0.520682;0.520354;0.523119;0.520181;0.514741;0.515879;0.514032;0.514179;0.509105;0.511353;0.511408;0.515843;0.506923;0.506542;0.508436;0.505167;0.507412;0.509577;0.505410;0.499570;0.502945;0.496029;0.503988;0.500346;0.497332;0.492247;0.501221;0.497713
0.538739;0.542084;0.543304;0.545367;0.547170;0.553281;0.557213;0.562919;0.564488;0.568094;0.570916;0.575432;0.575949;0.582796;0.580591;0.587534;0.589312;0.593097;0.596715;0.600998;0.603921;0.606820;0.613805;0.612973;0.621433;0.622500;0.629018;0.629488;0.629156;0.629565;0.636943;0.640611;0.643336;0.641798;0.647092;0.650777;0.650928;0.649383;0.649300;0.656192;0.654939;0.657762;0.658359;0.653939;0.656793;0.657717;0.659216;0.661559;0.661020;0.657444;0.656596;0.655207;0.659954;0.655717;0.657313;0.651572;0.653371;0.655024;0.649275;0.651343;0.649149;0.654619;0.647075;0.648100;0.649997;0.646048;0.650606;0.649679;0.647487;0.652652;0.652688;0.648236;0.644577;0.645824;0.647507;0.655287;0.651067;0.653234;0.651933;0.653388;0.654563;0.663235;0.664715;0.669255;0.670016;0.675670;0.673613;0.682591;0.682142;0.684041;0.687483;0.689787;0.703163;0.697671;0.707297;0.705963;0.713473;0.716472;0.724825;0.729505;0.732206;0.737588;0.740542;0.746604;0.744948;0.752082;0.755347;0.754979;0.759317;0.761800;0.766076;0.768171;0.769987;0.772475;0.776269;0.776978;0.778121;0.778346;0.776667;0.776620;0.783578;0.779128;0.781429;0.781352;0.776461;0.775816;0.773159;0.767427;0.761978;0.766302;0.761172;0.761579;0.754456;0.750105;0.748466;0.741039;0.736768;0.734278;0.728097;0.721975;0.715565;0.714449;0.709129;0.699247;0.700140;0.691688;0.686730;0.684945;0.673619;0.673172;0.664939;0.659593;0.654571;0.654314;0.643300;0.640582;0.630570;0.630385;0.627844;0.620541;0.618124;0.607956;0.606988;0.607652;0.600455;0.596737;0.590358;0.587084;0.580246;0.577230;0.573813;0.574500;0.572150;0.569858;0.563318;0.561702;0.558112;0.555269;0.556319;0.546463;0.543949;0.541825;0.542718;0.544325;0.539081;0.535296;0.531716;0.529395;0.530504;0.526698;0.526405;0.523715;0.522712;0.516630;0.521497;0.511898;0.517138;0.513315;0.513429;0.511399
0.527553;0.527074;0.531551;0.533951;0.539216;0.540025;0.541683;0.547692;0.548449;0.548587;0.556353;0.556871;0.558973;0.564397;0.565782;0.572269;0.571331;0.575606;0.579579;0.580680;0.583956;0.590797;0.590637;0.595557;0.595461;0.597504;0.604831;0.604826;0.609947;0.607309;0.613473;0.619748;0.622577;0.622600;0.634496;0.631981;0.633381;0.634889;0.643088;0.639513;0.644465;0.650135;0.645366;0.653524;0.653253;0.655498;0.658805;0.659986;0.662279;0.667329;0.664793;0.676661;0.673533;0.672696;0.669280;0.680380;0.677453;0.685937;0.681185;0.686092;0.685852;0.693120;0.688943;0.691612;0.697643;0.697237;0.698635;0.702910;0.703532;0.707948;0.705055;0.709030;0.716055;0.714998;0.714430;0.718626;0.716880;0.722422;0.728031;0.725022;0.730955;0.725538;0.735647;0.737232;0.737698;0.738932;0.743097;0.747962;0.753479;0.757527;0.756452;0.753260;0.757752;0.763913;0.764184;0.766300;0.766345;0.767095;0.777947;0.773817;0.778936;0.781789;0.781350;0.782580;0.784189;0.783369;0.784919;0.785743;0.783779;0.791406;0.788372;0.788079;0.789176;0.786009;0.782773;0.785687;0.792022;0.785353;0.786400;0.779021;0.776146;0.777759;0.773009;0.770854;0.763448;0.769829;0.762212;0.760529;0.754022;0.752414;0.747529;0.737676;0.737191;0.729462;0.727397;0.718332;0.714187;0.709791;0.705603;0.697147;0.695138;0.684503;0.685429;0.675062;0.672491;0.665720;0.657221;0.655396;0.647581;0.640456;0.634637;0.636601;0.631145;0.616200;0.617171;0.614953;0.606619;0.605706;0.599629;0.595244;0.592691;0.584360;0.582635;0.574486;0.574038;0.572182;0.570735;0.560141;0.561131;0.557965;0.554368;0.551095;0.551755;0.546145;0.543532;0.545037;0.541049;0.529492;0.535427;0.533136;0.531964;0.530200;0.526770;0.523570;0.526018;0.520279;0.520034;0.521833;0.520527;0.517596;0.515469;0.516241;0.515170;0.516571;0.514275;0.511523;0.507379;0.509492;0.509513;0.506023
0.580768;0.581308;0.590011;0.597109;0.598529;0.607506;0.613927;0.618493;0.627602;0.634092;0.639070;0.642988;0.652881;0.656303;0.668128;0.678043;0.682084;0.692661;0.698012;0.703475;0.715155;0.724482;0.726995;0.733484;0.736373;0.745792;0.750171;0.760383;0.766779;0.767845;0.772506;0.778942;0.784598;0.791356;0.790305;0.794825;0.799624;0.801864;0.801763;0.809022;0.808118;0.807872;0.810977;0.807404;0.806229;0.809145;0.806698;0.808276;0.803141;0.801311;0.798318;0.797752;0.794560;0.790441;0.786369;0.785101;0.779210;0.774060;0.769069;0.762992;0.760584;0.758942;0.752693;0.746755;0.741644;0.737980;0.738033;0.728517;0.724256;0.714944;0.707857;0.705122;0.700475;0.698274;0.696719;0.687701;0.683343;0.676636;0.675164;0.667071;0.669122;0.664339;0.659786;0.653449;0.653779;0.648615;0.642911;0.644679;0.639158;0.637601;0.636591;0.626514;0.635071;0.625602;0.624767;0.622735;0.622036;0.621917;0.618134;0.613277;0.616144;0.613667;0.616652;0.611025;0.612631;0.610167;0.610159;0.606997;0.603167;0.603185;0.609469;0.605577;0.606953;0.605536;0.604470;0.605745;0.607415;0.608784;0.604587;0.606289;0.609437;0.603740;0.602389;0.605934;0.602552;0.606071;0.609208;0.605699;0.610009;0.610175;0.607184;0.610148;0.608248;0.607681;0.608894;0.608593;0.611873;0.611897;0.616148;0.614216;0.612514;0.613677;0.614976;0.614971;0.617332;0.612431;0.617079;0.618671;0.619914;0.614168;0.615681;0.618482;0.618581;0.613115;0.615944;0.615014;0.611178;0.610356;0.606367;0.606183;0.607723;0.611201;0.609265;0.603287;0.602933;0.602557;0.599781;0.600813;0.597388;0.593165;0.592720;0.591227;0.588986;0.585065;0.581407;0.583145;0.579743;0.578987;0.577681;0.579955;0.568801;0.573534;0.567127;0.560882;0.562080;0.559961;0.553753;0.558865;0.553285;0.546970;0.553130;0.545671;0.544750;0.541544;0.540602;0.540797;0.534784;0.529602;0.535739;0.526954
0.559780;0.564708;0.566058;0.572809;0.573663;0.580635;0.586565;0.591573;0.599258;0.601797;0.602287;0.609346;0.615315;0.631160;0.633042;0.635651;0.640257;0.644652;0.650536;0.654804;0.662330;0.667689;0.672554;0.679011;0.688180;0.688430;0.696051;0.702517;0.706655;0.712809;0.717151;0.723941;0.726518;0.730757;0.738493;0.742134;0.738381;0.744883;0.753253;0.752107;0.749930;0.758229;0.757487;0.759031;0.767700;0.762437;0.767876;0.771467;0.769727;0.770758;0.771770;0.771334;0.774055;0.773612;0.772104;0.768605;0.771307;0.762740;0.763582;0.765576;0.765156;0.765727;0.763935;0.759731;0.762594;0.758925;0.751824;0.755726;0.754095;0.753545;0.744491;0.744349;0.747051;0.744501;0.735087;0.739264;0.731453;0.723158;0.728060;0.721208;0.717750;0.718278;0.713557;0.711991;0.708126;0.704400;0.703718;0.700184;0.691682;0.691281;0.684598;0.684262;0.677287;0.678652;0.670245;0.667621;0.666758;0.666630;0.658180;0.660254;0.650469;0.642181;0.641168;0.642708;0.635061;0.632158;0.635893;0.627530;0.625523;0.619824;0.615716;0.616537;0.617057;0.615680;0.612303;0.607497;0.609086;0.604301;0.603482;0.599941;0.602557;0.601131;0.600181;0.598166;0.598007;0.595736;0.594164;0.598973;0.596496;0.594260;0.596208;0.598934;0.597460;0.595210;0.595058;0.597888;0.597644;0.596904;0.600280;0.602515;0.601206;0.599834;0.604478;0.607178;0.599222;0.598707;0.597655;0.602798;0.599107;0.604588;0.604285;0.601525;0.603064;0.603945;0.603171;0.599111;0.603403;0.602886;0.599105;0.599673;0.599271;0.600635;0.595607;0.597926;0.592527;0.595286;0.589784;0.592526;0.583155;0.591632;0.585334;0.585379;0.580618;0.574552;0.579853;0.578403;0.569531;0.567821;0.569125;0.560310;0.563961;0.559123;0.556566;0.555872;0.553622;0.548375;0.547848;0.545314;0.538762;0.540218;0.537312;0.537318;0.534230;0.531129;0.529157;0.523143;0.521331;0.524944;0.522555;0.521216
0.512072;0.519948;0.522069;0.521255;0.520437;0.524316;0.527083;0.528955;0.535037;0.532031;0.536456;0.530995;0.535355;0.536604;0.539930;0.538729;0.544270;0.539467;0.545564;0.548930;0.551673;0.550565;0.556447;0.555560;0.561594;0.564169;0.565830;0.566870;0.573754;0.573672;0.575395;0.582886;0.578814;0.583955;0.585707;0.588048;0.588020;0.592612;0.596439;0.598234;0.607425;0.603755;0.609147;0.605750;0.611108;0.619158;0.618958;0.619355;0.622157;0.620633;0.628469;0.633943;0.637493;0.636704;0.636052;0.639007;0.642822;0.643021;0.648779;0.652348;0.652503;0.656410;0.660189;0.660963;0.661195;0.665548;0.670603;0.670320;0.678327;0.679245;0.678961;0.682319;0.683593;0.685814;0.684335;0.688506;0.689786;0.698837;0.697524;0.698011;0.698508;0.702751;0.705553;0.706191;0.707473;0.708078;0.712457;0.709526;0.712303;0.712220;0.719804;0.711319;0.719770;0.724930;0.722101;0.718013;0.725373;0.726838;0.722767;0.728689;0.729217;0.725027;0.730709;0.731662;0.727449;0.728617;0.736265;0.730772;0.735013;0.732328;0.735748;0.732662;0.736325;0.737975;0.739849;0.738030;0.735782;0.733959;0.737900;0.736376;0.738105;0.735574;0.737053;0.737766;0.735962;0.739556;0.734172;0.731411;0.734370;0.731135;0.727249;0.730820;0.734421;0.731133;0.731168;0.728866;0.732264;0.723495;0.729540;0.722103;0.717982;0.718934;0.718825;0.716001;0.714354;0.716706;0.716847;0.714450;0.711393;0.709297;0.706111;0.705146;0.703081;0.697946;0.693693;0.692403;0.693715;0.680482;0.689940;0.682813;0.680147;0.678147;0.674001;0.671269;0.667767;0.664139;0.662455;0.656239;0.655360;0.652363;0.644045;0.644136;0.639805;0.631383;0.629817;0.624479;0.622574;0.616076;0.613745;0.604070;0.605537;0.601177;0.594980;0.592229;0.588364;0.581924;0.580913;0.577947;0.572597;0.574503;0.569778;0.562213;0.560092;0.555203;0.554861;0.547805;0.544472;0.539327;0.536224;0.536729
0.533591;0.533874;0.535517;0.539841;0.542998;0.548151;0.550161;0.548110;0.551250;0.551040;0.561317;0.563606;0.564764;0.567367;0.567730;0.576703;0.574718;0.581435;0.576165;0.584602;0.583966;0.592187;0.590283;0.592209;0.601245;0.599855;0.604597;0.606686;0.608958;0.608845;0.614696;0.617704;0.621868;0.626391;0.620252;0.624773;0.629043;0.630801;0.627165;0.629096;0.632010;0.631649;0.632154;0.637879;0.631009;0.634411;0.635256;0.635778;0.637654;0.634619;0.639122;0.641531;0.638344;0.637633;0.644502;0.634667;0.637248;0.640026;0.639500;0.633510;0.638433;0.636692;0.633694;0.639201;0.635488;0.638255;0.638030;0.636014;0.641335;0.646890;0.642091;0.645199;0.647118;0.645315;0.652328;0.650575;0.655399;0.652731;0.660098;0.657795;0.664958;0.665599;0.667016;0.676017;0.677537;0.678216;0.684141;0.689610;0.691308;0.701539;0.702806;0.708707;0.715700;0.721250;0.727294;0.730356;0.735208;0.736511;0.745711;0.750875;0.755708;0.761595;0.765729;0.765948;0.773675;0.779973;0.780413;0.789682;0.789915;0.797768;0.796987;0.798545;0.800537;0.809305;0.812478;0.810379;0.809438;0.814505;0.810700;0.810800;0.812156;0.813790;0.810464;0.805022;0.810614;0.806491;0.806285;0.805481;0.798562;0.796634;0.789736;0.792240;0.782130;0.778003;0.775870;0.768351;0.763630;0.763051;0.753660;0.750991;0.743673;0.744564;0.737014;0.728213;0.720677;0.710229;0.707796;0.704373;0.694189;0.692937;0.684209;0.678012;0.668066;0.667366;0.664361;0.652089;0.649138;0.642471;0.638660;0.632635;0.630662;0.617598;0.617619;0.613246;0.611704;0.602694;0.597841;0.596899;0.593311;0.591141;0.584513;0.579545;0.578549;0.573703;0.570680;0.568697;0.568191;0.564582;0.559615;0.558680;0.559418;0.548967;0.549773;0.546486;0.543074;0.543067;0.545555;0.539432;0.535334;0.538284;0.529412;0.533612;0.530576;0.527855;0.526138;0.518592;0.524791;0.524324;0.519665;0.518091
0.520965;0.526884;0.527579;0.522991;0.527285;0.531975;0.535642;0.532618;0.533673;0.532124;0.535285;0.539041;0.541216;0.542614;0.544262;0.546674;0.550986;0.551792;0.553617;0.560364;0.557269;0.560870;0.564386;0.562256;0.567610;0.566224;0.571594;0.572509;0.574100;0.572225;0.581248;0.576533;0.577343;0.578469;0.575814;0.577464;0.582707;0.580891;0.580903;0.581271;0.586400;0.580781;0.583676;0.591938;0.587088;0.583632;0.586281;0.584408;0.585841;0.589064;0.590145;0.586703;0.586323;0.587474;0.589321;0.582706;0.591822;0.591922;0.588714;0.585994;0.584678;0.590018;0.589349;0.585439;0.591976;0.592936;0.591585;0.592252;0.592016;0.596042;0.594865;0.600411;0.605456;0.605082;0.608612;0.609637;0.619846;0.623448;0.623884;0.627445;0.628680;0.640116;0.644426;0.642389;0.649827;0.656523;0.660477;0.670286;0.671245;0.680940;0.682588;0.693966;0.694066;0.704575;0.714332;0.718634;0.726354;0.733962;0.737100;0.748786;0.755024;0.762440;0.769991;0.773851;0.785695;0.783454;0.792827;0.802001;0.803944;0.808712;0.810595;0.815121;0.818807;0.824136;0.831030;0.836915;0.833061;0.838650;0.839150;0.845521;0.840904;0.840449;0.841886;0.843318;0.845954;0.839944;0.841898;0.840373;0.843466;0.833841;0.833301;0.833030;0.825198;0.820613;0.819746;0.816365;0.814108;0.801603;0.801053;0.792023;0.787849;0.784996;0.778999;0.773104;0.763808;0.756225;0.759456;0.748512;0.741241;0.740348;0.732899;0.719647;0.719006;0.714129;0.707982;0.696152;0.692393;0.685628;0.687533;0.676494;0.674510;0.665511;0.665187;0.657342;0.648850;0.644998;0.640038;0.632232;0.631693;0.627752;0.616873;0.620702;0.608023;0.611608;0.600361;0.597408;0.596512;0.594503;0.584853;0.581271;0.580441;0.578624;0.575618;0.569659;0.565845;0.560888;0.558957;0.552974;0.554455;0.551813;0.548250;0.540897;0.540207;0.538866;0.537672;0.532738;0.530634;0.531510;0.529603;0.524337
0.518477;0.524092;0.522083;0.522068;0.530806;0.528153;0.530243;0.534117;0.534155;0.536658;0.529670;0.538441;0.536933;0.536902;0.538144;0.541040;0.545431;0.545810;0.545441;0.549915;0.546695;0.553018;0.558552;0.558750;0.559403;0.562015;0.564536;0.560722;0.558449;0.568413;0.565865;0.569408;0.569424;0.573917;0.574295;0.574013;0.579511;0.576491;0.577904;0.574852;0.578640;0.580074;0.573478;0.583468;0.577807;0.579751;0.579538;0.577411;0.577607;0.581792;0.575557;0.577424;0.575311;0.580156;0.579076;0.577402;0.578625;0.575470;0.573575;0.574303;0.571252;0.574200;0.573808;0.573878;0.574226;0.570982;0.570610;0.570682;0.572303;0.572403;0.565120;0.570207;0.568343;0.570851;0.569101;0.570003;0.570130;0.565189;0.572699;0.569037;0.569699;0.571782;0.570177;0.575095;0.569658;0.573520;0.577120;0.572389;0.573958;0.580280;0.581989;0.584041;0.586691;0.590141;0.588129;0.585647;0.597454;0.593634;0.598114;0.599370;0.603738;0.605115;0.609016;0.610295;0.615532;0.621394;0.619773;0.626820;0.627037;0.630698;0.635282;0.641850;0.644216;0.649930;0.651582;0.655940;0.663282;0.667205;0.673193;0.678253;0.679779;0.690767;0.695629;0.703356;0.707559;0.709948;0.718646;0.729394;0.727957;0.733096;0.743472;0.751566;0.753351;0.757608;0.767063;0.775034;0.777889;0.784540;0.792650;0.797780;0.803357;0.808804;0.810455;0.812890;0.819379;0.822233;0.827422;0.838787;0.840616;0.845206;0.840341;0.846300;0.847715;0.849660;0.852803;0.851582;0.852400;0.849001;0.853683;0.848699;0.844098;0.849979;0.848985;0.837661;0.842299;0.835656;0.823640;0.826393;0.824780;0.817361;0.804797;0.798365;0.799062;0.784827;0.783545;0.775891;0.768947;0.764529;0.748611;0.746095;0.733744;0.724875;0.721203;0.711513;0.703324;0.696527;0.685860;0.682780;0.672774;0.664486;0.656854;0.644442;0.639067;0.631952;0.631793;0.622931;0.613885;0.602239;0.598181;0.596474
0.605903;0.606478;0.614276;0.624858;0.628411;0.637038;0.642421;0.654357;0.660504;0.664480;0.679888;0.688208;0.696142;0.706704;0.714986;0.720712;0.731203;0.738744;0.753666;0.759569;0.766410;0.775460;0.786880;0.793823;0.798141;0.806199;0.814096;0.824003;0.835064;0.829006;0.839657;0.844849;0.850073;0.857648;0.860987;0.858387;0.869911;0.865101;0.868768;0.868721;0.872388;0.871044;0.865065;0.869455;0.864164;0.863846;0.861993;0.854765;0.851155;0.856569;0.847248;0.836753;0.834488;0.833868;0.824717;0.819416;0.808676;0.800384;0.795585;0.786538;0.778453;0.765885;0.763634;0.753395;0.744670;0.739130;0.732243;0.723528;0.713062;0.704915;0.698221;0.689018;0.678056;0.671036;0.666371;0.657779;0.653837;0.645111;0.638032;0.632769;0.627166;0.619420;0.611689;0.608506;0.600212;0.593996;0.595677;0.591076;0.589232;0.581520;0.579072;0.577085;0.573475;0.564249;0.565035;0.561729;0.561374;0.564566;0.561610;0.559350;0.553725;0.553355;0.553299;0.551980;0.552772;0.550459;0.550945;0.549302;0.551223;0.551364;0.553296;0.546342;0.553555;0.549512;0.552210;0.555026;0.558107;0.552197;0.550529;0.553651;0.561285;0.553169;0.563734;0.558677;0.564237;0.563364;0.566608;0.565535;0.563914;0.569480;0.571434;0.574458;0.574562;0.571847;0.575064;0.577815;0.578564;0.581709;0.583249;0.583676;0.580741;0.586081;0.588805;0.581853;0.590138;0.588330;0.590741;0.599340;0.597703;0.595686;0.595321;0.591780;0.601397;0.596761;0.596802;0.596608;0.598121;0.600477;0.592718;0.592570;0.593085;0.596189;0.595589;0.596597;0.592179;0.589593;0.593901;0.590963;0.581631;0.581152;0.584566;0.583470;0.579077;0.581684;0.576837;0.575818;0.571581;0.568401;0.565645;0.568987;0.565095;0.555702;0.557294;0.561552;0.550037;0.554601;0.547553;0.545668;0.546973;0.543876;0.543749;0.542876;0.540263;0.535703;0.532320;0.531889;0.529527;0.526999;0.524196;0.527136
0.540382;0.542586;0.542938;0.548851;0.551234;0.555385;0.557449;0.561649;0.564978;0.564282;0.573738;0.573842;0.578156;0.582583;0.588947;0.586947;0.594537;0.597393;0.603501;0.606625;0.608852;0.615349;0.615939;0.620637;0.621766;0.623870;0.630248;0.633071;0.639311;0.640881;0.641979;0.646686;0.645521;0.656005;0.649108;0.656826;0.659098;0.659156;0.659642;0.664001;0.666264;0.665686;0.669336;0.665515;0.670682;0.667338;0.668948;0.670084;0.664855;0.673726;0.670847;0.668354;0.672371;0.670127;0.666358;0.669954;0.663741;0.666298;0.667536;0.661513;0.659853;0.664432;0.662727;0.662517;0.658452;0.657933;0.657450;0.658342;0.656766;0.657259;0.659258;0.654111;0.656399;0.651950;0.655940;0.656593;0.656012;0.657692;0.655374;0.658673;0.658078;0.653549;0.659222;0.657171;0.657521;0.666324;0.665764;0.659958;0.665604;0.666195;0.669031;0.669314;0.672184;0.670608;0.678477;0.678690;0.677565;0.678086;0.681083;0.684212;0.691275;0.687309;0.690424;0.694097;0.695391;0.695338;0.700309;0.702478;0.700474;0.703207;0.707977;0.705857;0.713919;0.714881;0.709518;0.712243;0.715262;0.719660;0.718684;0.718892;0.716378;0.720644;0.724339;0.722500;0.720764;0.726034;0.719557;0.722543;0.724216;0.718844;0.720125;0.717534;0.719650;0.716738;0.717851;0.711624;0.714054;0.713107;0.709019;0.713015;0.711977;0.709982;0.710168;0.705062;0.702700;0.698730;0.697544;0.695916;0.693325;0.692454;0.689203;0.689179;0.682049;0.680765;0.682235;0.672990;0.676887;0.666861;0.664785;0.665248;0.658825;0.660094;0.654839;0.652374;0.648692;0.642096;0.642891;0.639067;0.633833;0.631719;0.622807;0.623629;0.619766;0.619518;0.615286;0.610439;0.606483;0.604286;0.597358;0.595215;0.588253;0.587852;0.583733;0.584225;0.579732;0.570490;0.574936;0.565189;0.563504;0.561249;0.555324;0.552845;0.547886;0.547169;0.542492;0.540668;0.541088;0.536905;0.537123;0.531315
0.603231;0.616430;0.624290;0.627955;0.634047;0.643017;0.654627;0.659360;0.673068;0.681660;0.686247;0.696548;0.702272;0.714869;0.720246;0.729563;0.738192;0.752880;0.758150;0.771216;0.780564;0.786375;0.796855;0.807682;0.818935;0.820122;0.829974;0.837986;0.844790;0.852661;0.857236;0.862851;0.868686;0.870912;0.880045;0.880016;0.883719;0.887002;0.883489;0.889210;0.893558;0.892050;0.893454;0.894090;0.888035;0.883997;0.883828;0.884758;0.873012;0.871097;0.864806;0.861539;0.856184;0.850106;0.845352;0.839269;0.832387;0.826945;0.813954;0.809116;0.798247;0.794531;0.785866;0.779806;0.768666;0.758321;0.748276;0.747897;0.732517;0.726699;0.716539;0.708972;0.705487;0.697463;0.684984;0.682689;0.674117;0.665342;0.656331;0.658492;0.647300;0.640773;0.634131;0.634058;0.626196;0.615846;0.612924;0.607967;0.606696;0.598447;0.596553;0.595835;0.595621;0.586297;0.587271;0.582091;0.583176;0.577296;0.575342;0.575490;0.571691;0.570698;0.572513;0.567314;0.563744;0.568081;0.566016;0.562907;0.567033;0.562296;0.563512;0.565505;0.561101;0.560034;0.561707;0.562103;0.563009;0.557282;0.566223;0.562182;0.560989;0.559429;0.563917;0.563491;0.563178;0.562233;0.563086;0.564795;0.566661;0.562601;0.565151;0.566822;0.566093;0.565530;0.567708;0.564126;0.567306;0.570424;0.566555;0.567110;0.568575;0.570590;0.567240;0.569485;0.568682;0.570777;0.568883;0.574741;0.571624;0.566199;0.569089;0.567085;0.571894;0.569031;0.569440;0.570023;0.568960;0.565322;0.565659;0.570582;0.562614;0.567216;0.562402;0.562239;0.566566;0.564208;0.561971;0.563363;0.555609;0.560181;0.559638;0.556567;0.550604;0.552716;0.555923;0.544684;0.543789;0.548730;0.547675;0.543656;0.543571;0.542889;0.540839;0.539435;0.537696;0.536267;0.536030;0.532879;0.532519;0.530439;0.528251;0.522685;0.528501;0.525722;0.522020;0.520870;0.525438;0.515403;0.513120;0.516075
0.512665;0.516051;0.512500;0.513889;0.522444;0.515966;0.516641;0.515026;0.520205;0.521108;0.521170;0.528343;0.520485;0.525808;0.526510;0.526209;0.533541;0.531282;0.532101;0.533967;0.532464;0.538074;0.542559;0.540190;0.540031;0.541612;0.544324;0.550513;0.548628;0.551217;0.553649;0.550341;0.553838;0.554701;0.552720;0.564011;0.559581;0.563474;0.564525;0.568629;0.565643;0.566108;0.569863;0.572957;0.577717;0.577557;0.577851;0.577591;0.586434;0.584019;0.584575;0.587842;0.584668;0.591858;0.595317;0.596686;0.600350;0.597820;0.599559;0.602001;0.606429;0.611228;0.606789;0.608005;0.608431;0.613390;0.613713;0.613004;0.616823;0.618301;0.621233;0.621236;0.623777;0.625180;0.627660;0.633701;0.634126;0.632460;0.637837;0.636787;0.640303;0.639649;0.639016;0.644804;0.647811;0.646649;0.644524;0.652064;0.652679;0.655661;0.654502;0.661109;0.657155;0.657160;0.662484;0.666064;0.666312;0.670178;0.669016;0.669536;0.674639;0.677013;0.676540;0.676143;0.680451;0.680521;0.686765;0.692314;0.686729;0.691833;0.693530;0.689589;0.695885;0.698392;0.706479;0.699724;0.704569;0.710994;0.712481;0.711283;0.713748;0.717152;0.716922;0.723446;0.719961;0.723347;0.729029;0.732416;0.739157;0.738043;0.740256;0.746493;0.742711;0.748742;0.745171;0.752043;0.757643;0.752521;0.757018;0.762062;0.763606;0.760108;0.768294;0.766388;0.762164;0.770618;0.768418;0.771884;0.777295;0.776150;0.775349;0.771518;0.771355;0.774182;0.770863;0.772892;0.767569;0.768389;0.765039;0.762072;0.757560;0.757655;0.754460;0.751703;0.750114;0.741996;0.741482;0.732383;0.728190;0.729569;0.715581;0.715329;0.706360;0.705888;0.694127;0.690914;0.687400;0.676855;0.671715;0.667910;0.657859;0.658460;0.645522;0.646763;0.636736;0.624948;0.627175;0.619062;0.613380;0.608241;0.598248;0.595184;0.589275;0.581458;0.572932;0.579215;0.564824;0.565792;0.555360;0.557567
0.521066;0.517286;0.521272;0.527576;0.520842;0.522019;0.525479;0.532459;0.526170;0.530285;0.533212;0.526944;0.532737;0.530648;0.534303;0.538129;0.540509;0.542102;0.540781;0.543509;0.546652;0.548507;0.547316;0.547636;0.554554;0.548631;0.555062;0.558067;0.560655;0.559023;0.561089;0.557670;0.559951;0.564409;0.564061;0.564765;0.569701;0.566303;0.570955;0.566542;0.564543;0.566757;0.566063;0.566643;0.568724;0.566519;0.568477;0.570317;0.567058;0.571038;0.572989;0.569887;0.570182;0.569721;0.579668;0.571617;0.574012;0.573516;0.579092;0.571681;0.575048;0.576863;0.577870;0.582250;0.581446;0.582116;0.581845;0.589252;0.595016;0.594568;0.595320;0.597217;0.604169;0.604165;0.613730;0.612681;0.614723;0.621767;0.626774;0.635327;0.636178;0.639743;0.650028;0.653401;0.659714;0.669292;0.671520;0.684482;0.689685;0.694077;0.708958;0.708221;0.721753;0.726181;0.739355;0.741604;0.748412;0.762686;0.764451;0.779880;0.781315;0.792235;0.799108;0.805345;0.816939;0.820872;0.829608;0.835036;0.840827;0.845517;0.854403;0.855836;0.864723;0.860727;0.866914;0.875951;0.876711;0.880022;0.879454;0.884807;0.884572;0.885435;0.885059;0.881573;0.881535;0.884637;0.871977;0.868880;0.869151;0.872656;0.861310;0.855029;0.849071;0.846956;0.838415;0.835019;0.824289;0.824249;0.815265;0.805230;0.799283;0.794214;0.786206;0.778784;0.770492;0.763686;0.752607;0.751191;0.741727;0.734913;0.723490;0.717738;0.712345;0.703094;0.694277;0.689772;0.678632;0.680545;0.668878;0.660130;0.655318;0.649707;0.643398;0.634950;0.624883;0.623626;0.620552;0.617067;0.608865;0.605255;0.602091;0.594542;0.589000;0.585942;0.582576;0.582374;0.574871;0.573009;0.568219;0.563135;0.561038;0.557657;0.552960;0.547255;0.543050;0.544381;0.544323;0.536416;0.535451;0.535125;0.532751;0.534056;0.523055;0.526376;0.529534;0.522465;0.518483;0.522156;0.517365;0.517082
0.546157;0.549289;0.543874;0.551294;0.553842;0.555092;0.566724;0.566642;0.570220;0.574005;0.578649;0.583552;0.583521;0.586687;0.588271;0.593325;0.598209;0.602842;0.604502;0.609245;0.617398;0.620394;0.624980;0.627938;0.629523;0.633461;0.637110;0.640102;0.644717;0.648734;0.648607;0.650233;0.651016;0.650954;0.658783;0.657331;0.657463;0.659356;0.660393;0.659955;0.665609;0.666393;0.663751;0.666427;0.661893;0.663012;0.663816;0.663441;0.662556;0.657012;0.655550;0.655831;0.652779;0.651200;0.651036;0.647424;0.646516;0.642511;0.639485;0.634832;0.632877;0.634595;0.629880;0.629612;0.629226;0.627542;0.624761;0.630253;0.625749;0.623625;0.622425;0.624371;0.623591;0.627681;0.631474;0.629091;0.631425;0.623674;0.631780;0.635516;0.639461;0.636928;0.638208;0.648732;0.646374;0.654242;0.655242;0.661480;0.667882;0.672874;0.677963;0.679913;0.689898;0.691734;0.700092;0.704329;0.708198;0.721028;0.722014;0.732807;0.738234;0.739892;0.740497;0.751365;0.757464;0.766030;0.768397;0.780020;0.777088;0.784062;0.793164;0.793307;0.790879;0.799711;0.798228;0.806097;0.801784;0.810313;0.807961;0.809401;0.811539;0.813016;0.812900;0.809934;0.813199;0.810373;0.803804;0.800330;0.801391;0.791134;0.793319;0.787640;0.786276;0.782911;0.777950;0.769278;0.764038;0.758932;0.751394;0.742969;0.741039;0.734108;0.724221;0.721509;0.715203;0.710125;0.703690;0.689160;0.687896;0.678262;0.673115;0.670955;0.664944;0.659273;0.656725;0.644173;0.643066;0.632309;0.626493;0.626030;0.618585;0.608659;0.606438;0.598464;0.595699;0.590717;0.587064;0.585203;0.580050;0.575550;0.570039;0.574804;0.564297;0.568171;0.558248;0.560177;0.556752;0.548906;0.547100;0.545842;0.543334;0.542231;0.533401;0.533468;0.530502;0.532206;0.527798;0.530323;0.523307;0.524633;0.525450;0.524800;0.519943;0.522972;0.518537;0.521457;0.524224;0.514444;0.519559;0.513379
0.534965;0.541601;0.545525;0.540869;0.543174;0.548770;0.553083;0.553542;0.555274;0.560383;0.561606;0.567180;0.567136;0.570075;0.580389;0.571069;0.582579;0.580148;0.587813;0.589143;0.592106;0.597116;0.603414;0.603065;0.605378;0.611741;0.612137;0.614922;0.617045;0.621532;0.619423;0.619881;0.627574;0.632039;0.628085;0.632810;0.633381;0.630449;0.635956;0.634270;0.637055;0.638494;0.634282;0.635638;0.636604;0.633546;0.637153;0.632412;0.636806;0.629564;0.631302;0.637371;0.628803;0.633033;0.627807;0.622898;0.622909;0.627030;0.622860;0.616006;0.621250;0.617014;0.617426;0.616950;0.616001;0.618684;0.614495;0.611224;0.611965;0.610456;0.608999;0.612923;0.609658;0.611934;0.611289;0.612703;0.610336;0.617703;0.615197;0.613504;0.620114;0.617648;0.617349;0.621283;0.622794;0.625813;0.632673;0.627641;0.638351;0.638323;0.644695;0.648158;0.648888;0.652597;0.655496;0.660869;0.663497;0.670714;0.676443;0.679894;0.680890;0.682412;0.691285;0.689351;0.696024;0.700775;0.706771;0.704426;0.714513;0.713104;0.718864;0.729579;0.730235;0.731377;0.732934;0.737184;0.733426;0.743965;0.744896;0.747653;0.747848;0.751215;0.753757;0.756961;0.755649;0.758078;0.756933;0.760419;0.759108;0.760531;0.760870;0.756623;0.758860;0.761955;0.758354;0.756024;0.754583;0.755391;0.753940;0.749033;0.746835;0.747980;0.752842;0.745261;0.741668;0.744414;0.737879;0.739995;0.737512;0.733745;0.730681;0.730264;0.724075;0.724807;0.718357;0.721159;0.710036;0.704956;0.706733;0.703513;0.700196;0.691972;0.687985;0.691786;0.685328;0.682844;0.678321;0.673621;0.666089;0.662441;0.656959;0.653426;0.644917;0.640442;0.639108;0.636270;0.632937;0.631225;0.624873;0.618858;0.611248;0.607121;0.605165;0.596253;0.593876;0.588296;0.586056;0.580379;0.579020;0.577958;0.569123;0.564529;0.565920;0.557946;0.553823;0.549697;0.551459;0.544503;0.543983;0.537112
0.579664;0.586392;0.592958;0.601506;0.602904;0.614262;0.618061;0.628106;0.634306;0.636350;0.641798;0.656417;0.660859;0.669405;0.676093;0.679758;0.694906;0.700026;0.709773;0.714866;0.723100;0.726704;0.737954;0.739538;0.752995;0.758674;0.767454;0.774714;0.779042;0.788927;0.791061;0.798039;0.802716;0.808834;0.815771;0.819054;0.823951;0.824649;0.830134;0.836105;0.839421;0.841437;0.843120;0.846918;0.850896;0.845345;0.848006;0.847676;0.851956;0.849830;0.848125;0.849450;0.845461;0.846946;0.840261;0.845188;0.839840;0.843068;0.836698;0.834277;0.832269;0.828995;0.821853;0.825785;0.821564;0.812351;0.810847;0.805083;0.802876;0.796594;0.799368;0.792319;0.784949;0.784297;0.784473;0.775428;0.772741;0.763478;0.763276;0.754562;0.752907;0.751315;0.745517;0.739060;0.737313;0.730293;0.718877;0.724239;0.718229;0.714706;0.705605;0.698260;0.696241;0.689619;0.688361;0.682627;0.675362;0.674338;0.669387;0.666258;0.659044;0.654128;0.650559;0.647363;0.642365;0.641376;0.637188;0.631083;0.626392;0.621530;0.616543;0.611250;0.614406;0.611396;0.601225;0.597209;0.595426;0.597698;0.589033;0.586869;0.582261;0.583447;0.573263;0.578466;0.575858;0.567840;0.566338;0.565699;0.562347;0.561354;0.556311;0.554056;0.557769;0.551668;0.553734;0.551423;0.549349;0.542286;0.546498;0.539711;0.542640;0.542040;0.537915;0.538517;0.531600;0.536410;0.533351;0.534407;0.529784;0.530017;0.530359;0.525494;0.525325;0.527062;0.527887;0.530655;0.519778;0.522475;0.526251;0.520644;0.523723;0.523809;0.519194;0.518651;0.514085;0.518591;0.519705;0.518043;0.516823;0.515220;0.511289;0.515376;0.514931;0.508805;0.512136;0.507174;0.510835;0.514680;0.505360;0.509064;0.509507;0.508020;0.508696;0.507129;0.507588;0.503742;0.511678;0.504278;0.504378;0.505037;0.507478;0.509649;0.507150;0.503795;0.504537;0.506746;0.500557;0.497083;0.507504;0.505810
0.527049;0.526218;0.531721;0.534501;0.533162;0.540270;0.538226;0.542883;0.541972;0.542605;0.551706;0.551832;0.557386;0.553310;0.558389;0.562352;0.561768;0.568672;0.569389;0.571377;0.569907;0.581004;0.580468;0.582592;0.584814;0.586684;0.587909;0.595148;0.600271;0.594880;0.600735;0.605123;0.609196;0.608500;0.611622;0.610290;0.622004;0.618653;0.620779;0.626313;0.628868;0.625265;0.627742;0.633764;0.630069;0.638910;0.636352;0.639400;0.638761;0.641646;0.641413;0.642790;0.646104;0.648946;0.647913;0.646431;0.649790;0.647110;0.648709;0.652052;0.651785;0.653015;0.656937;0.654181;0.656790;0.653039;0.657211;0.653615;0.660870;0.657844;0.656150;0.650793;0.655493;0.653085;0.652184;0.651789;0.659330;0.651143;0.651917;0.652063;0.653609;0.645857;0.650299;0.646537;0.647129;0.643991;0.647582;0.639595;0.641599;0.642769;0.637510;0.636079;0.640976;0.630611;0.634064;0.637500;0.631093;0.629120;0.626203;0.628807;0.628831;0.627538;0.623514;0.623717;0.623092;0.624920;0.624808;0.622875;0.626447;0.627396;0.626266;0.628762;0.631792;0.630978;0.631411;0.629018;0.636605;0.635660;0.637924;0.641004;0.643820;0.647511;0.651464;0.656069;0.655508;0.655569;0.663447;0.668741;0.675140;0.677077;0.681432;0.688431;0.692987;0.701703;0.701455;0.702772;0.715821;0.719430;0.721267;0.726809;0.733920;0.733925;0.741270;0.744815;0.749934;0.755276;0.755133;0.760560;0.766200;0.773277;0.768000;0.774625;0.779833;0.783017;0.783444;0.780610;0.781971;0.781506;0.782007;0.782898;0.781845;0.784639;0.783157;0.772818;0.772961;0.773306;0.772854;0.766563;0.764845;0.755801;0.756874;0.753256;0.748130;0.739623;0.736456;0.728731;0.725581;0.711073;0.705921;0.701399;0.701937;0.687859;0.683821;0.675822;0.671569;0.670203;0.658849;0.653179;0.645795;0.639293;0.630349;0.625687;0.620819;0.616297;0.613163;0.608210;0.599399;0.593261;0.589312;0.586084
0.515738;0.520999;0.519350;0.524300;0.524107;0.525495;0.526859;0.527602;0.530057;0.535764;0.535125;0.537831;0.533356;0.539414;0.541036;0.542211;0.547915;0.547368;0.546941;0.551286;0.552451;0.558628;0.560732;0.558125;0.559818;0.564793;0.564329;0.573073;0.570754;0.574959;0.578406;0.580025;0.582900;0.583534;0.585811;0.589167;0.588058;0.595068;0.600680;0.595471;0.595191;0.602501;0.606165;0.606684;0.609848;0.613496;0.614226;0.616893;0.616416;0.618996;0.621378;0.628401;0.627905;0.629639;0.629094;0.634470;0.636844;0.640996;0.643135;0.646079;0.648080;0.646764;0.646136;0.652821;0.656281;0.661865;0.659979;0.668928;0.670756;0.671746;0.673517;0.678972;0.678968;0.682689;0.683856;0.683245;0.690402;0.690434;0.699074;0.698338;0.699574;0.703643;0.709056;0.706561;0.709808;0.720188;0.717492;0.725993;0.724757;0.727416;0.734568;0.730917;0.737881;0.740490;0.741661;0.746773;0.753053;0.755943;0.749002;0.757839;0.758717;0.759632;0.767421;0.763215;0.762884;0.768453;0.772342;0.771428;0.776688;0.772048;0.775223;0.780365;0.783162;0.778623;0.778155;0.779795;0.781001;0.778800;0.781808;0.780416;0.782178;0.782686;0.782935;0.773885;0.772833;0.779320;0.771416;0.770428;0.769026;0.768807;0.768951;0.759070;0.761323;0.758211;0.756764;0.750741;0.744837;0.749234;0.741278;0.738320;0.733685;0.727506;0.728803;0.722756;0.718074;0.715434;0.711138;0.704491;0.701161;0.693889;0.693326;0.689662;0.685885;0.682802;0.680927;0.670834;0.670225;0.665663;0.662252;0.660880;0.653824;0.650957;0.641633;0.634572;0.637901;0.631872;0.626396;0.629808;0.625325;0.618775;0.619508;0.607217;0.607939;0.601275;0.597834;0.597936;0.592536;0.588011;0.587396;0.583048;0.576670;0.572381;0.571206;0.570570;0.566807;0.559192;0.555195;0.556626;0.550171;0.548931;0.550252;0.542957;0.542401;0.542153;0.539475;0.531789;0.535635;0.529108;0.530708;0.528504
0.526533;0.533072;0.536740;0.534669;0.539715;0.543460;0.543823;0.547188;0.549157;0.555420;0.557550;0.559976;0.558057;0.558922;0.566142;0.572560;0.571503;0.577027;0.580273;0.580758;0.584543;0.590028;0.591915;0.593466;0.597832;0.599235;0.604975;0.607522;0.606602;0.610128;0.619023;0.620074;0.623626;0.622389;0.625491;0.627568;0.635726;0.631906;0.637459;0.638037;0.640046;0.640685;0.640504;0.647801;0.651753;0.651177;0.648669;0.652706;0.652689;0.655115;0.656634;0.659203;0.655645;0.661531;0.658343;0.662990;0.663160;0.662100;0.666433;0.662438;0.666031;0.665329;0.668827;0.670712;0.668002;0.667495;0.671966;0.671648;0.667473;0.673612;0.673569;0.676986;0.676655;0.672199;0.675222;0.677461;0.682579;0.680624;0.683197;0.684308;0.684387;0.683977;0.686523;0.686621;0.689918;0.692284;0.693269;0.693460;0.696932;0.701209;0.698897;0.704563;0.704122;0.703751;0.707011;0.705208;0.709970;0.711967;0.709856;0.714077;0.714236;0.715510;0.717060;0.718502;0.723260;0.717372;0.718522;0.725283;0.724758;0.727018;0.724087;0.730562;0.726162;0.727439;0.728556;0.731399;0.730715;0.732149;0.733031;0.730017;0.729841;0.737315;0.733398;0.734334;0.735021;0.730413;0.732501;0.733393;0.732434;0.730678;0.727758;0.731793;0.726190;0.724520;0.722713;0.719808;0.720263;0.717721;0.717116;0.715232;0.716658;0.708654;0.714489;0.708872;0.708902;0.705048;0.703115;0.699520;0.698109;0.694918;0.690272;0.695824;0.681553;0.684117;0.684832;0.680197;0.673310;0.674488;0.671936;0.668241;0.664782;0.665452;0.656791;0.657216;0.654308;0.650670;0.641678;0.641422;0.638207;0.636047;0.633110;0.626074;0.624317;0.619640;0.617057;0.612145;0.611388;0.605819;0.606383;0.595269;0.590704;0.591631;0.590090;0.580556;0.584248;0.575141;0.576488;0.570284;0.565778;0.564892;0.562937;0.558302;0.556266;0.549775;0.550429;0.545332;0.544172;0.539089;0.543294;0.538948
0.549141;0.546690;0.547902;0.552991;0.558895;0.557340;0.563284;0.566633;0.567248;0.573384;0.581759;0.581635;0.591627;0.588944;0.596788;0.596392;0.602076;0.608437;0.616366;0.617443;0.624387;0.626898;0.634754;0.635162;0.637926;0.645476;0.648701;0.652533;0.656747;0.655717;0.662368;0.666476;0.673295;0.669012;0.673042;0.680898;0.679283;0.684170;0.690645;0.690044;0.694199;0.694748;0.694693;0.698808;0.700722;0.704661;0.702844;0.705276;0.702555;0.704612;0.704592;0.706856;0.703976;0.705283;0.703616;0.703551;0.706651;0.701658;0.704136;0.701652;0.700466;0.702306;0.697964;0.701519;0.696194;0.696421;0.692273;0.690327;0.691816;0.691137;0.688011;0.691294;0.684400;0.680729;0.678784;0.680131;0.679933;0.671099;0.673890;0.672558;0.670165;0.670994;0.668913;0.665528;0.662483;0.655049;0.657223;0.650871;0.651238;0.649189;0.644093;0.643780;0.642156;0.634359;0.637826;0.635716;0.632103;0.631163;0.629142;0.625326;0.619666;0.627430;0.617200;0.618105;0.617103;0.620187;0.617799;0.618630;0.615996;0.614194;0.611170;0.610554;0.614370;0.608148;0.610590;0.612385;0.612251;0.615195;0.617720;0.618063;0.615098;0.621387;0.616548;0.622198;0.619010;0.623631;0.626469;0.631700;0.637991;0.632925;0.637644;0.648241;0.647330;0.653129;0.650806;0.657076;0.658015;0.663148;0.665987;0.671766;0.673486;0.675932;0.681689;0.682764;0.686830;0.687081;0.686390;0.690587;0.692880;0.698240;0.697012;0.694740;0.702860;0.704021;0.701700;0.703777;0.704647;0.710132;0.703817;0.703575;0.703445;0.707149;0.697949;0.695124;0.695874;0.696621;0.695277;0.689430;0.692399;0.686078;0.686320;0.679348;0.677129;0.674205;0.666627;0.661132;0.657978;0.654548;0.645677;0.642027;0.641150;0.635912;0.628711;0.627491;0.621989;0.620827;0.613006;0.607608;0.598219;0.594503;0.589142;0.585614;0.581044;0.577726;0.575398;0.564928;0.566871;0.563548;0.556723;0.552669
0.528827;0.534292;0.538435;0.539246;0.540665;0.544176;0.546141;0.546776;0.556117;0.552769;0.558451;0.559444;0.564333;0.572770;0.566368;0.575430;0.574979;0.577026;0.586888;0.587782;0.594736;0.592404;0.597607;0.605289;0.606730;0.611038;0.615435;0.618003;0.623255;0.625685;0.630425;0.633295;0.639499;0.641183;0.647287;0.650222;0.649913;0.658225;0.660690;0.663937;0.669850;0.672116;0.677660;0.680332;0.688695;0.688462;0.694878;0.697634;0.702820;0.702321;0.708597;0.714689;0.717398;0.718927;0.723617;0.725787;0.732500;0.734107;0.736804;0.739684;0.743034;0.746952;0.751109;0.747306;0.755341;0.756156;0.756061;0.754234;0.763035;0.763329;0.763944;0.767925;0.767246;0.765534;0.768680;0.765915;0.770643;0.772405;0.773192;0.772455;0.768255;0.768980;0.766099;0.765192;0.761118;0.756198;0.758406;0.759845;0.759693;0.753144;0.754643;0.748117;0.744503;0.742230;0.743387;0.736574;0.735657;0.732961;0.729255;0.722800;0.718729;0.719317;0.710889;0.714330;0.705194;0.700599;0.697956;0.692600;0.688907;0.683228;0.684401;0.679315;0.679167;0.675181;0.672562;0.670803;0.665884;0.664640;0.662077;0.657311;0.652850;0.652132;0.653494;0.647890;0.646987;0.645782;0.644620;0.644395;0.642489;0.639704;0.642773;0.639763;0.633960;0.643011;0.636946;0.637179;0.636170;0.635225;0.634916;0.630111;0.627766;0.633585;0.633456;0.628895;0.639005;0.630239;0.631209;0.630374;0.628132;0.631944;0.631902;0.628844;0.625019;0.625295;0.627379;0.626264;0.624425;0.623356;0.616460;0.613359;0.614748;0.614607;0.611331;0.616510;0.615223;0.609838;0.603630;0.606009;0.605647;0.601170;0.598726;0.594361;0.594538;0.585847;0.592288;0.585224;0.581202;0.581551;0.575887;0.578550;0.570071;0.568324;0.564165;0.564822;0.557336;0.557173;0.556016;0.552089;0.550856;0.547201;0.547947;0.542294;0.537834;0.540943;0.535833;0.532801;0.530713;0.532253;0.518256;0.526915
0.523314;0.521491;0.520894;0.526613;0.524114;0.527950;0.529809;0.536323;0.532008;0.539560;0.533303;0.537131;0.544335;0.537318;0.543169;0.546998;0.545930;0.552367;0.550393;0.551931;0.556187;0.555353;0.560063;0.559894;0.564009;0.560800;0.563691;0.564516;0.562111;0.565634;0.566359;0.569332;0.570610;0.573725;0.571020;0.573337;0.573709;0.575739;0.572272;0.576384;0.577071;0.577183;0.579263;0.579494;0.575413;0.578114;0.573187;0.573581;0.576260;0.572316;0.573644;0.571000;0.572773;0.570237;0.572408;0.563916;0.571656;0.565996;0.564606;0.567198;0.563063;0.557576;0.558970;0.559171;0.558236;0.555523;0.558039;0.556532;0.550728;0.546534;0.552872;0.548932;0.554104;0.548204;0.547362;0.547324;0.545305;0.546641;0.546381;0.543814;0.547642;0.542803;0.545115;0.549010;0.546466;0.546767;0.547147;0.549523;0.552717;0.554163;0.553812;0.555546;0.557016;0.558491;0.557419;0.562941;0.564255;0.564641;0.570633;0.568328;0.570749;0.573473;0.577077;0.579491;0.584914;0.590610;0.597432;0.592391;0.597861;0.608536;0.608651;0.609944;0.613496;0.617422;0.621624;0.630359;0.638824;0.647291;0.650409;0.657554;0.664470;0.668025;0.676258;0.681087;0.689960;0.697872;0.705371;0.716581;0.721258;0.727074;0.734381;0.743971;0.749100;0.753397;0.767302;0.767541;0.782511;0.792928;0.796721;0.803051;0.807119;0.814259;0.817341;0.828726;0.834864;0.841622;0.841533;0.853444;0.857611;0.860433;0.866047;0.871973;0.872781;0.869717;0.873100;0.871544;0.875646;0.878941;0.876546;0.877143;0.876281;0.871116;0.872723;0.865690;0.868474;0.863486;0.859748;0.853619;0.845123;0.838283;0.833389;0.829686;0.822074;0.813705;0.807353;0.800245;0.790324;0.780620;0.778927;0.766106;0.756655;0.749173;0.739948;0.729871;0.725412;0.712245;0.703264;0.696148;0.681495;0.677280;0.671782;0.662284;0.647057;0.637785;0.637073;0.625483;0.626444;0.612916;0.603939;0.601150
0.519291;0.520972;0.513936;0.524966;0.517182;0.525024;0.527204;0.525479;0.528924;0.527755;0.526491;0.538286;0.531581;0.535195;0.540996;0.538523;0.539436;0.544204;0.547514;0.548129;0.548073;0.551806;0.553838;0.555239;0.559156;0.560641;0.564444;0.563712;0.566279;0.566555;0.573859;0.577110;0.575822;0.574708;0.572402;0.582496;0.580982;0.581522;0.582904;0.583067;0.588379;0.594156;0.591879;0.593638;0.598089;0.592988;0.598067;0.598547;0.604227;0.605552;0.601088;0.609531;0.606437;0.608734;0.614990;0.612279;0.616838;0.615055;0.619582;0.617411;0.621860;0.627948;0.621985;0.622787;0.625919;0.631131;0.630531;0.632210;0.635344;0.635148;0.637972;0.640357;0.636493;0.643913;0.648780;0.651776;0.652286;0.647441;0.652793;0.665505;0.656836;0.665998;0.663978;0.667853;0.669830;0.674796;0.672844;0.680021;0.678874;0.682939;0.686778;0.690161;0.693323;0.699750;0.696652;0.699537;0.705635;0.706678;0.711708;0.715830;0.712322;0.721628;0.720371;0.723784;0.730970;0.731049;0.734977;0.737381;0.743322;0.745214;0.744799;0.747254;0.746351;0.751974;0.756264;0.752968;0.751171;0.756468;0.758541;0.763638;0.761715;0.765770;0.766091;0.760608;0.766183;0.761178;0.771009;0.769152;0.766636;0.766186;0.769863;0.765499;0.764579;0.764499;0.760570;0.762171;0.762163;0.758727;0.758249;0.756236;0.755944;0.754249;0.752413;0.752955;0.742459;0.748073;0.743137;0.746287;0.744015;0.734901;0.733610;0.735063;0.730471;0.727232;0.721079;0.724943;0.721064;0.716169;0.711937;0.705904;0.707236;0.700294;0.701828;0.697436;0.690995;0.687762;0.680787;0.673059;0.673226;0.671744;0.664019;0.662997;0.657521;0.649588;0.642055;0.636980;0.637664;0.631811;0.634314;0.624287;0.619369;0.614007;0.608886;0.600989;0.595497;0.593491;0.590789;0.583185;0.582433;0.575019;0.576604;0.571417;0.567645;0.561087;0.554790;0.551514;0.550163;0.547779;0.545095;0.540618
0.551634;0.560491;0.560326;0.568952;0.567634;0.568746;0.579432;0.579413;0.589355;0.590702;0.600428;0.601461;0.608517;0.609631;0.611470;0.622902;0.622167;0.629877;0.631375;0.645138;0.646353;0.650905;0.662152;0.661530;0.662519;0.674881;0.680584;0.685633;0.690147;0.693608;0.696735;0.705793;0.709908;0.714763;0.723522;0.723398;0.730647;0.736027;0.738319;0.740423;0.745769;0.747066;0.752873;0.759208;0.757481;0.765341;0.767941;0.774791;0.770286;0.777914;0.778815;0.776217;0.781207;0.781921;0.788266;0.786998;0.785641;0.789957;0.794413;0.794995;0.795016;0.795692;0.799294;0.795860;0.794302;0.794633;0.799163;0.800667;0.795821;0.791336;0.794253;0.798805;0.793258;0.791387;0.791042;0.792643;0.790127;0.784168;0.779783;0.777149;0.772401;0.772868;0.769937;0.764766;0.757474;0.763608;0.757110;0.758021;0.751906;0.748348;0.745533;0.742276;0.732811;0.727898;0.725206;0.717534;0.714108;0.708071;0.700184;0.700964;0.690062;0.689144;0.684832;0.679055;0.677735;0.673236;0.665676;0.664877;0.657931;0.655473;0.647148;0.642094;0.638147;0.634948;0.631551;0.622489;0.622344;0.624306;0.620183;0.612451;0.610297;0.609718;0.603873;0.604581;0.601321;0.602369;0.595519;0.593789;0.590002;0.592584;0.589528;0.591142;0.584634;0.589620;0.583058;0.579989;0.578661;0.578405;0.581946;0.583217;0.577830;0.575681;0.577608;0.577332;0.574917;0.575778;0.576075;0.569658;0.567457;0.567233;0.571589;0.569774;0.570907;0.571700;0.572832;0.569632;0.567763;0.566290;0.564172;0.562824;0.562874;0.565012;0.558190;0.562872;0.558142;0.556266;0.553894;0.552083;0.553683;0.552688;0.551189;0.548478;0.548801;0.545653;0.546238;0.547911;0.541166;0.539847;0.544596;0.539787;0.539408;0.536681;0.531009;0.536279;0.526981;0.527186;0.524367;0.524416;0.526683;0.518853;0.525007;0.518271;0.521225;0.515652;0.512106;0.510202;0.513734;0.512332;0.509603;0.510370
0.533518;0.535351;0.540150;0.539856;0.546171;0.544239;0.548904;0.552501;0.552607;0.557863;0.557514;0.559409;0.568452;0.571368;0.570051;0.574667;0.584919;0.584870;0.586685;0.592735;0.597016;0.596962;0.602338;0.605854;0.611725;0.612600;0.621197;0.622248;0.627390;0.630680;0.637030;0.634099;0.640441;0.645066;0.642807;0.645697;0.646549;0.652579;0.655294;0.659833;0.666250;0.663021;0.663147;0.668285;0.673306;0.675047;0.678558;0.685626;0.681755;0.686337;0.689994;0.693091;0.694910;0.686935;0.696755;0.694179;0.695701;0.699318;0.698999;0.698108;0.702131;0.702888;0.699737;0.705880;0.701780;0.707822;0.704844;0.703934;0.705364;0.706665;0.704732;0.706987;0.704874;0.712650;0.706959;0.706827;0.706565;0.703350;0.700644;0.702285;0.705301;0.704442;0.699088;0.699476;0.695246;0.696941;0.693251;0.695148;0.690834;0.689639;0.683016;0.682265;0.686702;0.676204;0.671642;0.677230;0.674462;0.667336;0.667836;0.666315;0.662995;0.662673;0.659634;0.656430;0.655003;0.656461;0.652615;0.649081;0.646798;0.643929;0.649578;0.648440;0.645087;0.645718;0.641307;0.643303;0.641603;0.640524;0.640353;0.647366;0.640125;0.645793;0.638156;0.643810;0.647872;0.642067;0.643489;0.649096;0.645814;0.645821;0.648301;0.653499;0.654266;0.656776;0.659873;0.659122;0.660466;0.659172;0.661155;0.671306;0.668430;0.664793;0.672801;0.670684;0.678032;0.675754;0.678402;0.680508;0.680974;0.681799;0.678497;0.684382;0.682767;0.680584;0.680931;0.680609;0.681067;0.682266;0.676090;0.680029;0.678741;0.676792;0.677648;0.674368;0.672176;0.668835;0.672594;0.662513;0.662098;0.657581;0.652337;0.655470;0.646619;0.642240;0.636077;0.635746;0.634644;0.628274;0.626672;0.617555;0.617228;0.609971;0.606244;0.601761;0.596488;0.590485;0.590249;0.581839;0.583422;0.576283;0.571797;0.567168;0.564424;0.563500;0.554256;0.553942;0.549990;0.543627;0.542993;0.533555
0.536458;0.535862;0.541604;0.539552;0.543795;0.548767;0.548510;0.555590;0.557611;0.556351;0.562103;0.561119;0.566182;0.574224;0.574708;0.580839;0.581362;0.586759;0.592086;0.589247;0.597471;0.599093;0.600610;0.609283;0.611698;0.615288;0.623250;0.624197;0.621276;0.630023;0.633159;0.638937;0.640931;0.642023;0.647869;0.655851;0.656719;0.660178;0.663176;0.665260;0.670229;0.670268;0.673172;0.675472;0.683154;0.685506;0.686461;0.688269;0.692113;0.691588;0.696211;0.693965;0.699974;0.705163;0.701557;0.711163;0.709747;0.715824;0.717772;0.716341;0.723821;0.728775;0.727364;0.724905;0.729150;0.730965;0.735407;0.733945;0.737940;0.742924;0.737514;0.741949;0.743173;0.748348;0.745752;0.752636;0.748736;0.754273;0.755790;0.757916;0.757764;0.760293;0.759645;0.763615;0.763582;0.767303;0.764751;0.771250;0.772207;0.772394;0.774771;0.771126;0.773284;0.770573;0.775390;0.773650;0.769924;0.778119;0.771980;0.779515;0.777004;0.774460;0.775315;0.772375;0.773394;0.775751;0.774116;0.771350;0.769148;0.767648;0.769831;0.766607;0.766248;0.765628;0.761385;0.759966;0.761023;0.757658;0.756409;0.752928;0.753772;0.747280;0.748286;0.738546;0.729453;0.733605;0.721700;0.722940;0.716800;0.714425;0.709393;0.699319;0.695828;0.695918;0.685657;0.684312;0.678467;0.673069;0.663281;0.662067;0.655363;0.654863;0.641063;0.639176;0.631026;0.628972;0.622876;0.618914;0.614308;0.607170;0.602528;0.593763;0.595332;0.592819;0.582053;0.580682;0.571347;0.568368;0.569229;0.563691;0.560371;0.550032;0.553731;0.548234;0.542770;0.541083;0.541734;0.538654;0.535810;0.533303;0.534062;0.527916;0.525389;0.529374;0.522324;0.520936;0.517002;0.518072;0.513197;0.513078;0.510619;0.512244;0.510021;0.507716;0.509870;0.509426;0.504802;0.504740;0.503313;0.505652;0.509389;0.505268;0.506741;0.501217;0.503946;0.500965;0.504044;0.494755;0.500587;0.500099
0.503843;0.506959;0.509053;0.511367;0.511429;0.514475;0.513590;0.513641;0.518050;0.520349;0.521509;0.523823;0.523593;0.523224;0.523803;0.521129;0.528110;0.532037;0.532815;0.535908;0.540066;0.539362;0.541658;0.548030;0.557258;0.559322;0.554403;0.564001;0.567723;0.569964;0.578569;0.582156;0.588626;0.592741;0.600692;0.605359;0.617234;0.618786;0.627295;0.633527;0.638616;0.649829;0.657892;0.663693;0.675305;0.682748;0.697041;0.697625;0.708837;0.721170;0.735147;0.743284;0.753563;0.761989;0.776122;0.780010;0.792928;0.798152;0.812471;0.823239;0.834221;0.840523;0.854977;0.859921;0.868845;0.878749;0.889737;0.891189;0.904457;0.911205;0.918009;0.917809;0.927274;0.927589;0.936565;0.943918;0.945946;0.943227;0.945601;0.946278;0.953311;0.945881;0.946854;0.946459;0.943529;0.936685;0.936856;0.930367;0.923222;0.920743;0.915580;0.909183;0.904236;0.896231;0.889785;0.878928;0.873183;0.860924;0.854170;0.842013;0.831993;0.824318;0.811949;0.805532;0.793509;0.786779;0.777455;0.770095;0.754294;0.746871;0.738453;0.724179;0.720264;0.708651;0.702722;0.695413;0.683676;0.674896;0.669464;0.658865;0.650644;0.640769;0.643428;0.629315;0.627573;0.618594;0.612794;0.604218;0.603794;0.605143;0.589987;0.586078;0.582679;0.577736;0.569070;0.567921;0.562757;0.561164;0.556126;0.555816;0.557211;0.548321;0.547454;0.545908;0.544414;0.541587;0.539012;0.535954;0.534810;0.531006;0.537601;0.526175;0.528069;0.524996;0.521870;0.524765;0.523188;0.519676;0.517873;0.520798;0.518430;0.518378;0.518362;0.515300;0.516450;0.515405;0.508336;0.506979;0.516996;0.505700;0.512080;0.516536;0.509258;0.509928;0.507894;0.509425;0.502860;0.508986;0.513859;0.503598;0.501812;0.508102;0.505880;0.500877;0.505033;0.498680;0.506743;0.502447;0.503494;0.501754;0.504486;0.501043;0.501403;0.498758;0.496000;0.493465;0.502084;0.499780;0.496498;0.500576
0.542826;0.545717;0.550014;0.551001;0.554596;0.562317;0.564084;0.566541;0.569092;0.574475;0.579550;0.582924;0.588409;0.595590;0.596804;0.597623;0.604777;0.602475;0.608251;0.615781;0.619479;0.622838;0.627238;0.631233;0.640656;0.639836;0.643218;0.649773;0.651531;0.655519;0.658193;0.661956;0.660463;0.670016;0.667734;0.672251;0.672886;0.676160;0.676626;0.678386;0.676516;0.681817;0.682560;0.682274;0.683780;0.687855;0.683974;0.687493;0.688221;0.688113;0.684724;0.689311;0.686126;0.688387;0.689034;0.683628;0.682297;0.684114;0.685298;0.684071;0.677908;0.681210;0.678251;0.680043;0.677299;0.677519;0.676227;0.671962;0.677899;0.673799;0.672053;0.671346;0.671037;0.673385;0.674707;0.670198;0.672784;0.669127;0.680741;0.673293;0.676562;0.677497;0.675952;0.674697;0.682531;0.678997;0.681002;0.678670;0.687999;0.688108;0.684117;0.693008;0.688744;0.692613;0.694743;0.699160;0.699508;0.702747;0.709984;0.709065;0.712615;0.710174;0.715347;0.719663;0.719650;0.718670;0.727181;0.721611;0.725991;0.729098;0.731429;0.731263;0.734421;0.732960;0.736704;0.732336;0.737061;0.735315;0.737258;0.734312;0.735385;0.737194;0.735608;0.729543;0.731524;0.725713;0.730482;0.725431;0.723588;0.720701;0.718294;0.717890;0.716855;0.712384;0.704772;0.705407;0.697197;0.699447;0.692264;0.693175;0.687534;0.684267;0.681670;0.672826;0.672146;0.673513;0.667528;0.665702;0.654835;0.656089;0.654833;0.648734;0.642541;0.637611;0.635814;0.630689;0.624264;0.625095;0.623142;0.616996;0.615030;0.605646;0.606306;0.604172;0.598573;0.595225;0.590073;0.588502;0.584174;0.584793;0.582392;0.572229;0.570164;0.572663;0.569003;0.562655;0.565039;0.560667;0.554336;0.553572;0.549355;0.547058;0.546323;0.544746;0.539003;0.540614;0.534252;0.531618;0.528469;0.526932;0.525512;0.524445;0.525619;0.526908;0.518605;0.516908;0.518163;0.517819;0.518205;0.511627
0.527308;0.527939;0.530281;0.533472;0.532351;0.537289;0.531068;0.542523;0.547182;0.544152;0.553275;0.554638;0.552848;0.560343;0.559438;0.557473;0.563086;0.567449;0.569351;0.573927;0.574368;0.576849;0.578867;0.579912;0.583732;0.585829;0.591870;0.591865;0.594876;0.595708;0.598216;0.603393;0.596256;0.603340;0.606793;0.604007;0.608999;0.608448;0.609585;0.620052;0.614297;0.613224;0.617062;0.619371;0.620483;0.618540;0.619013;0.621500;0.623286;0.623048;0.622112;0.623497;0.626475;0.622269;0.616812;0.625994;0.627337;0.625126;0.629611;0.632489;0.625723;0.631651;0.627842;0.626750;0.626498;0.631791;0.630803;0.633555;0.635375;0.635187;0.639694;0.637613;0.644203;0.647560;0.645449;0.644000;0.653177;0.654352;0.655862;0.666769;0.665368;0.663860;0.672761;0.678225;0.682222;0.682701;0.690035;0.691797;0.696386;0.702333;0.709872;0.707849;0.714953;0.730070;0.735312;0.739538;0.744276;0.747053;0.756620;0.755856;0.764565;0.767179;0.773041;0.781052;0.783862;0.785732;0.797636;0.795338;0.800903;0.803218;0.803858;0.814911;0.813481;0.815618;0.823547;0.825564;0.822191;0.823444;0.828980;0.826431;0.831213;0.824224;0.827813;0.827479;0.822394;0.817028;0.816810;0.818019;0.813158;0.811798;0.807664;0.801497;0.804087;0.793387;0.789094;0.786017;0.778827;0.772895;0.767293;0.764846;0.754608;0.752004;0.750030;0.740646;0.734054;0.730427;0.723607;0.713016;0.710480;0.702967;0.693485;0.682883;0.689867;0.676897;0.672141;0.669092;0.662976;0.655035;0.650102;0.644805;0.633635;0.636917;0.634352;0.623141;0.621011;0.613379;0.611249;0.605172;0.597964;0.600472;0.588850;0.587680;0.586245;0.584228;0.573026;0.576583;0.570511;0.569769;0.565820;0.564878;0.556064;0.556575;0.555843;0.546196;0.553096;0.545861;0.541907;0.541689;0.544569;0.542208;0.533912;0.538627;0.532505;0.535873;0.528821;0.525529;0.523154;0.528995;0.527571;0.527637
0.536848;0.544480;0.541507;0.544972;0.548403;0.552998;0.553067;0.560554;0.563612;0.560662;0.569401;0.571274;0.578281;0.578814;0.581504;0.589397;0.589288;0.592757;0.599875;0.601917;0.608328;0.612289;0.614103;0.617868;0.622489;0.625703;0.628884;0.629168;0.641105;0.641223;0.645088;0.646429;0.651745;0.650596;0.656992;0.665191;0.664021;0.666670;0.668094;0.673024;0.675345;0.679907;0.681648;0.676865;0.680998;0.688649;0.687903;0.688083;0.694248;0.693006;0.693446;0.695107;0.694632;0.697108;0.698197;0.701023;0.698648;0.701994;0.704107;0.700461;0.697257;0.705615;0.704962;0.704543;0.701778;0.707304;0.703261;0.697884;0.703312;0.700421;0.696188;0.699461;0.699799;0.698083;0.696545;0.694376;0.694661;0.689240;0.690240;0.685831;0.683743;0.679274;0.680685;0.677865;0.675875;0.676632;0.675677;0.673173;0.669584;0.661661;0.662677;0.661659;0.655313;0.659552;0.651366;0.647206;0.646829;0.642432;0.640244;0.642950;0.636162;0.636724;0.632628;0.631436;0.629153;0.625603;0.626914;0.620595;0.622549;0.617445;0.620160;0.617268;0.621209;0.618252;0.621738;0.616760;0.614211;0.615362;0.618570;0.616660;0.625727;0.619941;0.621285;0.624810;0.622514;0.624992;0.629342;0.631791;0.635741;0.639152;0.639632;0.639672;0.647633;0.650138;0.653349;0.652299;0.655656;0.664592;0.666778;0.667853;0.674538;0.677175;0.681187;0.684292;0.683682;0.686833;0.692264;0.692064;0.691798;0.701572;0.699386;0.701896;0.701307;0.702930;0.708939;0.706803;0.708449;0.712653;0.706531;0.706348;0.707180;0.705843;0.701825;0.703817;0.698450;0.698997;0.699935;0.689828;0.692775;0.685783;0.683294;0.682109;0.674288;0.675177;0.668939;0.669170;0.662084;0.654851;0.648084;0.647748;0.641557;0.633430;0.635164;0.626179;0.623586;0.619063;0.609483;0.609016;0.602615;0.600472;0.593408;0.587789;0.586269;0.580315;0.567502;0.575126;0.568423;0.565049;0.560932;0.554124
0.527782;0.531194;0.529380;0.535091;0.539021;0.538774;0.541724;0.545617;0.544922;0.543950;0.549530;0.556035;0.557196;0.564156;0.559000;0.565897;0.571581;0.568476;0.566373;0.580604;0.581285;0.584663;0.581059;0.587492;0.592206;0.590639;0.596127;0.597488;0.597532;0.601051;0.604170;0.604957;0.610896;0.616844;0.612223;0.614679;0.613247;0.618116;0.619650;0.621614;0.622465;0.623959;0.625584;0.626387;0.628635;0.629716;0.626640;0.632298;0.630422;0.629032;0.635195;0.634815;0.632375;0.633871;0.630333;0.628962;0.631589;0.632663;0.631174;0.633893;0.634572;0.631983;0.633186;0.634053;0.635075;0.632212;0.633551;0.632546;0.635038;0.631509;0.636693;0.637567;0.638582;0.635021;0.637689;0.640452;0.639973;0.644395;0.641948;0.647449;0.649125;0.648387;0.653512;0.649636;0.656455;0.654701;0.662240;0.663129;0.665831;0.668310;0.670809;0.672590;0.669172;0.681870;0.680223;0.679081;0.688266;0.696431;0.692577;0.701558;0.697773;0.708267;0.705114;0.709062;0.710760;0.718511;0.723476;0.720572;0.722551;0.725573;0.731127;0.735088;0.736215;0.738644;0.732909;0.740548;0.742687;0.743763;0.756796;0.746677;0.750584;0.747025;0.751995;0.758579;0.755043;0.753707;0.755256;0.751492;0.753544;0.753914;0.759264;0.755702;0.756438;0.752127;0.754791;0.752604;0.754102;0.749617;0.747699;0.745377;0.746696;0.747861;0.745191;0.747400;0.741804;0.738536;0.738817;0.734369;0.732755;0.728725;0.727442;0.727417;0.723309;0.717956;0.718740;0.716437;0.712051;0.708104;0.702427;0.700889;0.701598;0.696178;0.688047;0.686480;0.683496;0.680652;0.674654;0.675595;0.661292;0.662954;0.657477;0.656183;0.651247;0.650558;0.642983;0.635856;0.633576;0.629599;0.624056;0.619384;0.613090;0.610239;0.603535;0.602996;0.599705;0.594702;0.586551;0.586304;0.578984;0.577561;0.575699;0.571987;0.566244;0.562748;0.563644;0.557180;0.551860;0.548668;0.549139;0.543188
0.507618;0.510452;0.508844;0.513991;0.515007;0.518389;0.515909;0.521145;0.519521;0.519932;0.517913;0.518447;0.518893;0.522904;0.520902;0.525492;0.524516;0.526784;0.531402;0.526679;0.529298;0.529231;0.526493;0.534265;0.533069;0.534239;0.538155;0.533328;0.533040;0.535211;0.540035;0.539577;0.540225;0.540217;0.546950;0.542464;0.543202;0.546478;0.543943;0.544887;0.545576;0.545594;0.545470;0.548026;0.548613;0.545178;0.550405;0.545377;0.547493;0.548955;0.549706;0.546877;0.551701;0.553842;0.551559;0.549001;0.555589;0.552047;0.552888;0.554847;0.554069;0.556605;0.560507;0.556892;0.564865;0.565566;0.562084;0.557853;0.569858;0.573685;0.573413;0.571427;0.580142;0.581835;0.585032;0.588052;0.594479;0.601729;0.596674;0.611384;0.608523;0.615747;0.621301;0.628686;0.632115;0.634025;0.639090;0.652383;0.657874;0.661922;0.669165;0.672703;0.679914;0.692109;0.694410;0.703667;0.715213;0.715698;0.726537;0.733731;0.740798;0.753720;0.753290;0.761918;0.768019;0.775662;0.779023;0.790152;0.797591;0.798577;0.802094;0.806295;0.815998;0.821190;0.825423;0.833099;0.834769;0.840663;0.840133;0.842063;0.845519;0.850975;0.847895;0.849152;0.849004;0.851935;0.852491;0.853721;0.849684;0.844991;0.853739;0.845658;0.843866;0.843598;0.842002;0.841538;0.840104;0.836857;0.831694;0.825336;0.822237;0.819585;0.821921;0.807407;0.808361;0.802601;0.802877;0.795320;0.794201;0.788343;0.787183;0.780984;0.775384;0.770304;0.765071;0.757764;0.754772;0.746856;0.743747;0.734592;0.728562;0.727671;0.723270;0.719062;0.707920;0.702799;0.699472;0.689492;0.691456;0.683341;0.673133;0.674956;0.666088;0.662852;0.661595;0.653670;0.647023;0.641799;0.635434;0.627035;0.622648;0.617444;0.611651;0.609124;0.605558;0.602328;0.595550;0.589965;0.586029;0.583294;0.578193;0.570675;0.571781;0.563631;0.563888;0.555086;0.554237;0.553487;0.543739;0.547004
0.568150;0.575764;0.581296;0.583946;0.588554;0.596393;0.601075;0.605856;0.608956;0.616233;0.623584;0.626077;0.630650;0.639861;0.654237;0.656791;0.658908;0.667672;0.674296;0.678179;0.687878;0.688077;0.698446;0.704575;0.708605;0.713783;0.717600;0.727638;0.729834;0.736544;0.739616;0.740083;0.747188;0.751803;0.754589;0.757642;0.759310;0.763681;0.765803;0.769038;0.769451;0.767350;0.769406;0.766079;0.770592;0.769623;0.770644;0.767611;0.767064;0.766494;0.762215;0.753472;0.754969;0.752518;0.751270;0.750405;0.749093;0.743225;0.739229;0.729303;0.727820;0.724906;0.718673;0.713876;0.707653;0.710590;0.698345;0.699570;0.690693;0.688719;0.681041;0.677359;0.677435;0.667515;0.666063;0.663220;0.655589;0.651169;0.649601;0.644795;0.638026;0.641809;0.636536;0.632765;0.624080;0.621143;0.621334;0.620958;0.610642;0.611019;0.613783;0.602601;0.605628;0.604825;0.600121;0.594915;0.594708;0.595131;0.592858;0.591249;0.583900;0.590340;0.586620;0.590846;0.590064;0.589339;0.589565;0.584848;0.589960;0.587568;0.584486;0.590165;0.583870;0.585847;0.588273;0.587524;0.591865;0.591082;0.592661;0.591587;0.590703;0.591741;0.599089;0.601967;0.604004;0.597183;0.609190;0.608709;0.613676;0.614163;0.611024;0.618336;0.619545;0.619183;0.622322;0.626551;0.628352;0.635104;0.638517;0.636763;0.642443;0.645631;0.646807;0.643516;0.648769;0.651212;0.652708;0.658006;0.657562;0.658090;0.656513;0.661052;0.661382;0.666448;0.662771;0.666288;0.665659;0.670474;0.665347;0.668316;0.662904;0.660525;0.658977;0.658342;0.662502;0.658182;0.655072;0.654176;0.652284;0.641580;0.646756;0.647938;0.636225;0.632711;0.634285;0.628627;0.631284;0.622867;0.620807;0.614815;0.608378;0.612442;0.608081;0.601861;0.592004;0.591785;0.586524;0.582934;0.582351;0.578266;0.570593;0.570932;0.563931;0.564091;0.559594;0.553603;0.547850;0.547551;0.546479;0.546323
