partition,sample_id,1100,1105,1110,1115,1120,1125,1130,1135,1140,1145,1150,1155,1160,1165,1170,1175,1180,1185,1190,1195,1200,1205,1210,1215,1220,1225,1230,1235,1240,1245,1250,1255,1260,1265,1270,1275,1280,1285,1290,1295,1301,1306,1311,1316,1321,1326,1331,1336,1341,1346,1351,1356,1361,1366,1371,1376,1381,1386,1391,1396,1401,1406,1411,1416,1421,1426,1431,1436,1441,1446,1451,1456,1461,1466,1471,1476,1481,1486,1491,1496,1502,1507,1512,1517,1522,1527,1532,1537,1542,1547,1552,1557,1562,1567,1572,1577,1582,1587,1592,1597,1602,1607,1612,1617,1622,1627,1632,1637,1642,1647,1652,1657,1662,1667,1672,1677,1682,1687,1692,1697,1703,1708,1713,1718,1723,1728,1733,1738,1743,1748,1753,1758,1763,1768,1773,1778,1783,1788,1793,1798,1803,1808,1813,1818,1823,1828,1833,1838,1843,1848,1853,1858,1863,1868,1873,1878,1883,1888,1893,1898,1904,1909,1914,1919,1924,1929,1934,1939,1944,1949,1954,1959,1964,1969,1974,1979,1984,1989,1994,1999,2004,2009,2014,2019,2024,2029,2034,2039,2044,2049,2054,2059,2064,2069,2074,2079,2084,2089,2094,2100,target
train,sample_0000,0.5296071821546114,0.5314671418472411,0.5326647746642611,0.5377332356007523,0.5440574838964441,0.5445108934636851,0.5455411873133946,0.5484774288512234,0.5445730385359592,0.5523796266083754,0.5541124704199637,0.5498731950507876,0.5598277503126103,0.5645420796132112,0.5703617249749161,0.5696959341307057,0.5710636192284759,0.5729097739051181,0.5790286150819692,0.5791985042186695,0.5826801805923103,0.587442608076058,0.5841953775827451,0.5932217722587294,0.5959834082134114,0.5972895835402063,0.6022392309849969,0.604286216030437,0.6050015661809488,0.6087137824148225,0.616158070306406,0.6171018057556956,0.6200566543750309,0.624531204654111,0.6230687834540134,0.6279099354117239,0.6240370593454634,0.6339237068830591,0.635304344520408,0.6309295083643538,0.636314102216358,0.6437794398168799,0.6432850926969553,0.6458500706604684,0.6420011287067001,0.6497668718497582,0.6469860172291642,0.6454429336437215,0.6494374792760238,0.6508642117391302,0.6478412165708607,0.6540234550899068,0.6549128783411087,0.6592240743315504,0.6581901512581685,0.6563890898601902,0.6565719973958076,0.6573954165164455,0.6631672744411408,0.6605367404522215,0.6623463372802594,0.6642853603335013,0.6663959646879685,0.6705332364220988,0.6661375898655002,0.6695859184964649,0.6746685743910115,0.671162757873714,0.6736591110479284,0.6782913902369961,0.6754255779125655,0.6781361786723528,0.6814603898356266,0.6853239894202389,0.6906899302944736,0.6904770867194241,0.691403382283253,0.6939620786713794,0.6950961590879677,0.6993543040798034,0.7017075493378424,0.7084255892274048,0.7099863714843646,0.7109126973788443,0.7161589463633864,0.7189990494881388,0.725255342252177,0.729993966005055,0.7289142260563924,0.7337296538368876,0.7395758258770272,0.7388620649748161,0.7447939516762638,0.7517896383140399,0.7530178902762021,0.7560433470420838,0.7608481892405341,0.7660370459451973,0.7700404738923172,0.7703833784646731,0.7783794083224372,0.7762422200489718,0.784563884733066,0.7868393533638346,0.7920046804694868,0.7915869388409196,0.7958155915028713,0.8008265916215379,0.80011368202535,0.800487323994247,0.8052250066127231,0.8086791482485216,0.8046264496386664,0.8103993162768064,0.80545310388597,0.8072893511791777,0.8081331052573573,0.8077680910031186,0.8110940563614828,0.8055393982584652,0.8049500203985444,0.8035423724880069,0.8020984495861581,0.7987648056718357,0.7943460320198645,0.7879740698796233,0.7915238949101904,0.7821113602301946,0.7782545106430344,0.7781861474540569,0.7681968165259929,0.7692565772177765,0.7610668470526958,0.7573469913740241,0.7511299301634979,0.7421922981062041,0.7374609442572273,0.7338485285246356,0.7232590337020803,0.7174943905270332,0.7128859437165167,0.7060903957781197,0.7007606273831706,0.6968953963219591,0.6875295318140362,0.6797545194455944,0.670114123444412,0.6658144239002493,0.6643172412067775,0.6560955629641534,0.6477254502510271,0.6472600712078168,0.6379654693849012,0.634002544977248,0.6253074146377049,0.6182752478960407,0.6129640964851593,0.6073066156687176,0.6016626854506492,0.5960543426585634,0.5945027541728063,0.5896696151253078,0.5824935101650398,0.5763157035124995,0.5767906656559222,0.569967263807299,0.565179065130899,0.5574456373524306,0.5611759840235924,0.557735117569431,0.5558394415242829,0.551157902877356,0.5434617554885535,0.5474961582798537,0.5392375294970709,0.5383642755452579,0.5358526452783112,0.5371031280458122,0.5373305255521582,0.5288238052874598,0.5294441432363015,0.5256777445251396,0.5239994600467618,0.5201372031388481,0.5225558474306945,0.5195775252840367,0.5182213616945065,0.5192048721534208,0.5161065741157886,0.518615669876089,0.5118580362826994,0.5088442110836621,0.5092756177062865,0.5102450892609458,0.5073494946695263,0.5084624822868369,0.5056923581264785,0.507957016453841,0.5038201011725089,0.5066033220266715,17.562616366447088
train,sample_0001,0.5596973529325062,0.5701280026402857,0.5663523356718805,0.5752655835198621,0.5820216389886022,0.5852509937040693,0.589198117068277,0.5934067075103778,0.60324864186842,0.6014018671840218,0.606992995178857,0.6142280632821683,0.6145237941096505,0.6231575231099042,0.6332652693111569,0.6332086924111571,0.6421093969254882,0.6494611903107382,0.6520047497787431,0.6578476256639441,0.6680510246998922,0.6674032196847508,0.6752203879033266,0.68043020849315,0.6863630161269949,0.6888368224857278,0.6935591926120058,0.6972910266749899,0.7011773156043732,0.70823535768682,0.7115373503985617,0.7161028362639239,0.7118599312158547,0.7229866123303784,0.7221199197904364,0.7264137209415749,0.7316144969046348,0.7320803534216876,0.7323439364210451,0.732488284700431,0.732118396601136,0.7369848343113369,0.738264931162955,0.7324257881741146,0.7361516134558779,0.7350862901058512,0.7348638892973804,0.7350009110673245,0.7301750682449979,0.728256543285488,0.7301210847426205,0.7285772431566597,0.7222609777228657,0.7189109274483486,0.7169018458294099,0.7157008931692179,0.7171570680983316,0.7146324287538941,0.7068906277373901,0.7029016411047758,0.7032204809743694,0.6973050449557192,0.6970209835408698,0.690079150958259,0.6877563868547537,0.6859213095928436,0.6810623202271942,0.6768358283163394,0.6740607456208373,0.6745160167172273,0.6697564571010249,0.6717125739974263,0.6644787036936873,0.6618287311085529,0.6589218388591561,0.6541213072045874,0.655108995572933,0.6518124426606772,0.643892127042611,0.6489122432332078,0.6463860228323992,0.6472719954482014,0.6470925042643032,0.641267994397549,0.6411482693868662,0.6375705329386476,0.6443607188124328,0.6413035824697915,0.6384586128414829,0.6415932272198097,0.6427487370484859,0.6409597066651616,0.6358805153452869,0.6479456421832765,0.6471985722887947,0.6431734967992735,0.6517823556003106,0.6525066453603354,0.6547843790934378,0.6542259003524755,0.6579605145745088,0.6547691284763586,0.661078316716374,0.6567100975695946,0.6607857170267322,0.6565210140780344,0.6661645201659881,0.6646212085616576,0.6682950441781713,0.6665259235904,0.6706929555936387,0.6721980102738758,0.6750855031648564,0.6770089735651964,0.6769920166206821,0.6807635269708309,0.6774130641170589,0.6747411133339887,0.6809686886516054,0.6839365248628932,0.6793931444670855,0.6834325218111839,0.6824640288788032,0.6789723943274383,0.6827346422240386,0.6872565346633556,0.6829038338467732,0.6808493058201164,0.685739788920857,0.6828491352141082,0.684619009696683,0.677894760721453,0.6780825859373758,0.6823029374347729,0.6828062563649651,0.6811587452563093,0.6785196840074276,0.6743404327751397,0.6721766010372239,0.6717637497479584,0.6717717644232917,0.6700426223168556,0.6725930414595264,0.6717627551758432,0.669417946363472,0.6654055809756259,0.661913948061445,0.6657725041100093,0.6618102955684991,0.6634120850904998,0.6528674398117672,0.6559262428714054,0.6545015628089722,0.649765076772292,0.65127947068124,0.645659055340376,0.6395931924277893,0.6436055410320816,0.6422912315408542,0.6328118182318788,0.627181745178287,0.6266594355903745,0.6273358028627181,0.6264862476247858,0.6218856888518262,0.6198321832127768,0.6153315712622118,0.6161765189548146,0.6112943340662964,0.6117491556959216,0.6048969711087554,0.6068734667884106,0.5981865505031101,0.5982169166021244,0.596535551678461,0.588012504263685,0.590159273858985,0.5845571007363939,0.5848585488120098,0.5776027663458967,0.5766738518784267,0.572176215046836,0.5669599647486322,0.565512030507957,0.5626064606682712,0.5606612596021594,0.5572401953245406,0.5554087937066562,0.554580056018458,0.5526061404066128,0.5461781667896796,0.5463174859465685,0.5449022553907514,0.5428674607271612,0.5419135581031994,0.5362129701983404,0.5357317716134551,0.5313389808737501,0.5334973346396782,0.5307968731160917,22.061066813361006
train,sample_0002,0.5016945044482263,0.5006686153168356,0.5009708861838679,0.500362511867959,0.4995787236398153,0.5038806444501939,0.5034364264272853,0.5015575770210298,0.4990716069656689,0.4973736209839633,0.4969304968915126,0.5048137617416923,0.49739832361269193,0.5020663050773428,0.5043788233958887,0.5022532153362959,0.5021335150679008,0.5098579075709466,0.5035818584219268,0.5008805228569752,0.5054518795039513,0.5051913802650776,0.5029517854857574,0.5073226071434733,0.5094298332439091,0.509526679952384,0.5169110405966231,0.5071647621911238,0.5130881998389838,0.514900128269981,0.5127765937926049,0.5165737048170426,0.5164326316316987,0.5187129553635811,0.5167346778474868,0.5212656239518493,0.5241220091733435,0.5264584327732963,0.5259585789423775,0.5268210088423955,0.5266334741843505,0.5328570834562348,0.5293801981302914,0.5349290532463099,0.5308917790375072,0.5375471099327911,0.5413459999132916,0.5469623545178359,0.5441615597870556,0.548210056357049,0.5548347772741775,0.5535558754080706,0.5527457627766016,0.5603840880008668,0.5626163561804081,0.5675155534172691,0.5712153314630158,0.5750662159459448,0.5753894188056731,0.5825983527698736,0.5857895516578377,0.5859357245867617,0.5914067497354648,0.5985380676031061,0.6038912914371184,0.6066893679928007,0.6111764231384171,0.6226546706614546,0.6192899920629547,0.6253272572913076,0.6323929093640291,0.6376315932969823,0.644136335054649,0.6448460893057322,0.6536913172596157,0.6577403724839648,0.6652418543909462,0.6717317042513977,0.6754445548387495,0.6865418798288083,0.6904109677764234,0.6982281689430867,0.7061734236789491,0.7119818133511967,0.7124842732806873,0.7265646590090211,0.7311022984570319,0.7380530253440958,0.7441792701401481,0.7521484271219849,0.7539083892030913,0.7643907298710882,0.7707468473983046,0.7800743700309614,0.784195963066312,0.7909395379645173,0.7983031885224203,0.802962489945727,0.8159836985336565,0.8248446541094656,0.8239279729647527,0.8317314178445991,0.838572003923373,0.8464923118394476,0.8548737988397379,0.8623487373126179,0.863293733289688,0.8660621112758711,0.8698918431636914,0.8731907068234714,0.8766307551432956,0.8831901005303566,0.8849348029484745,0.8906456808749733,0.8912684033203226,0.8926217398792426,0.8949358570221557,0.8941000068836149,0.8947671830117057,0.8951793787032007,0.8890235800791708,0.8925247504684652,0.8915527914749591,0.8895815416594943,0.8874623283365317,0.8844217012637403,0.8780879954390937,0.8763229689906353,0.8728157176164724,0.8687347719472189,0.8637496432434975,0.8551350610017026,0.8505009529161763,0.8482171934448457,0.8413215796507172,0.8330058592926108,0.8268524191707932,0.820436158503888,0.8059011549268686,0.8035746474143823,0.7962953470115806,0.7866893256899978,0.779360331808625,0.7756389086511788,0.763962728813907,0.7585636219055747,0.7504852074773382,0.744184896585617,0.7326423765085108,0.7246154886450238,0.7190601025856533,0.7087293826665169,0.7009276146371359,0.6929154825656783,0.6861850018362599,0.6825492431085092,0.6735910708426153,0.6660432029640309,0.6612743823455274,0.6506926613039383,0.6463549446017306,0.6420242430733365,0.6297018389282197,0.6336901025180859,0.621540836092116,0.6150918029470984,0.6150375398281337,0.6101872284310029,0.6017405031962504,0.5969612603160991,0.5939981835829458,0.5852553645593673,0.5879269669701911,0.5767449393652052,0.5740799876576075,0.5717033039698547,0.5653087155588233,0.5713053177436864,0.5548569042132488,0.5561014840213196,0.5580277423747985,0.549600143266974,0.5502004386153501,0.5475783580785067,0.541534971059018,0.5441270081848836,0.5337580425854568,0.5329861425772409,0.5309989490603987,0.5282458857912217,0.5269808806092517,0.5264066748735317,0.5231911039857212,0.5259988841630066,0.5202840135177573,0.5197222316499754,0.5162042260487008,0.5184945336156025,0.5105470366217231,0.5152593745005992,7.022810658362265
train,sample_0003,0.5305438540573483,0.5264627700672199,0.5330466379595604,0.5320402558280085,0.5340481940194708,0.5357372714875807,0.5392104087663608,0.5440945432619667,0.5483922299402836,0.550002745553782,0.5509719407824928,0.555237738770254,0.5565895121603974,0.5566857352414362,0.5632182413444208,0.5643305989778894,0.565039281581498,0.5715102229598406,0.5692657056449518,0.5770355697097312,0.5750905469125173,0.5817191309520373,0.5835534267710455,0.5846950988087325,0.5840322934259247,0.5869048352659584,0.5912333053514803,0.5931246329360953,0.5964711180687479,0.5951176910614417,0.5991030542756408,0.5973428076853113,0.5976754089641123,0.6081264898773928,0.6080858841951237,0.611377213495931,0.6060262825877029,0.6131699855128423,0.6173422231611645,0.6147593362622996,0.615068549550633,0.6184210881272324,0.6105564984128417,0.6163304704119189,0.6103011826679273,0.6179997645925884,0.6157227323686773,0.6222679472837285,0.619481319697369,0.6207639373566153,0.6194985894988598,0.6126906295762387,0.6156720086333096,0.6139902268971263,0.6162722391941873,0.6170915466192901,0.6109358105183881,0.6122836570811989,0.6133461929922,0.6168661806973771,0.612939288485463,0.6146988407121168,0.6090193061795602,0.6058282371397437,0.6090554151433214,0.6071505041453255,0.6104914173364093,0.6032563138343228,0.6049929954002095,0.6021012923569351,0.5939381001304682,0.6016683691350125,0.5945338300502443,0.5970300719545976,0.600920453276601,0.5958853810609771,0.5940841725518656,0.5967911164240027,0.5938151029474921,0.5939723151557096,0.595480182241854,0.5941754392853128,0.5897531316984665,0.590726728890904,0.5904869836185376,0.5930631952496519,0.5860983533597973,0.589226659299712,0.5849136114011204,0.585537217056159,0.5897861787641889,0.5929019431343778,0.592073138927149,0.5907055386345234,0.592803396353612,0.5954076298727702,0.5908547697694894,0.59444132545451,0.5952415821899982,0.6002419268549097,0.6015258689232658,0.6008874302573967,0.5963072526225369,0.6013631197439085,0.6056768210454097,0.6028180252295705,0.6079038666245475,0.6150998884839449,0.6133685157443374,0.6137809689077625,0.6161566819125263,0.6192105500188968,0.6286401457071087,0.6292337281926315,0.6344539945437626,0.6317393945105785,0.6389581205000746,0.6396742014062224,0.6429237834481771,0.647885927590903,0.6501477629087843,0.6578620503143923,0.6646621254440374,0.6673321074723857,0.6705053497047022,0.68356054435911,0.6842102732589889,0.6874717745877081,0.6955046886359917,0.699716727289911,0.707882176668257,0.7130792088964588,0.7186412911337464,0.7271727104414827,0.726573465325341,0.7294068376719384,0.7374614960753045,0.7446471884906307,0.7494067165183268,0.7596400280775406,0.7594167109524161,0.7668869264969213,0.7746449346547091,0.7765872290285674,0.7844599752343566,0.7864979232764451,0.7919810715707909,0.7977063105645756,0.8008144565599427,0.8043360304640195,0.8099310798507504,0.8112445796952339,0.8162632931751932,0.8065901585451886,0.8191597194624607,0.8193030728420684,0.8166168064762458,0.8136122681533338,0.8180286281839763,0.8153565229506643,0.8130533587869689,0.8093074791778656,0.8175097068059001,0.8114308443728749,0.8133734564015858,0.8025546700748811,0.8015369227441023,0.796564931037453,0.7927475646652655,0.7882346130620943,0.7858445804759899,0.7781406618077461,0.774156055799073,0.7649461277766024,0.7581721978252076,0.7526838048992417,0.7448353881620635,0.7352939401246077,0.7305928157497174,0.7268406756810861,0.7178269965929008,0.706541093577993,0.7009443699048746,0.6937659686654719,0.6887685517420011,0.6784240289088621,0.6753407070047239,0.6585173915089484,0.6628693328507796,0.6508482546850549,0.64526420615109,0.634672584454648,0.6292229903912512,0.6198525538642685,0.6178336613628128,0.6087218506060913,0.6091854243045927,0.5986944230396036,0.5915384506831571,0.5841223302007619,9.81690946555857
train,sample_0004,0.5758300314555603,0.5858632740705643,0.5944770356118884,0.5993873163990141,0.601944487755637,0.6091854228184923,0.619663300483838,0.622510541643732,0.6331463406025062,0.6377682200400783,0.6420962458150608,0.6515471721181683,0.6576133031557518,0.6666125976667471,0.6720180875158841,0.683311948465086,0.6918035797599432,0.6947277982960457,0.705668538063044,0.7085592754915158,0.7152226466237636,0.7273430281336032,0.7315054707978955,0.7390497622058729,0.7478475415082662,0.7606422809997846,0.7602306793712448,0.769768456784955,0.7733769920589604,0.7783144668906379,0.7842731989513416,0.7889984796580174,0.7930017155804958,0.7983110216185929,0.7985234835551847,0.8103792054212685,0.8091583385861764,0.8159653336658094,0.8124238435446727,0.8144588870256829,0.8152993178087644,0.819371044587492,0.8187164221890847,0.8190955764477326,0.820507901564751,0.8181039948800144,0.8226006415971713,0.8193586144039785,0.8193423244314215,0.8193479644133302,0.8156438592983299,0.8109902781388991,0.8052281747504683,0.8053377885360293,0.8028644443889675,0.7952943577203514,0.7953606010172912,0.7878631021431521,0.7888813812688755,0.7823959193274942,0.777638433782428,0.7687264830362923,0.7686544305280663,0.7612196351088061,0.7602396114897705,0.7567797459910349,0.7485757909828523,0.7411909200430833,0.7422877776502652,0.7344887572944024,0.7283448254621321,0.7230454097338213,0.7150339666306196,0.7178172868171864,0.7150499931319292,0.7096372928162367,0.6989193606824007,0.6966761032056464,0.688971994293007,0.6865819646261415,0.6858653446323308,0.6774848566472494,0.6769410938454123,0.6710079570876141,0.6707929843844161,0.6622801765216054,0.6623367822157722,0.6625828260477985,0.6593524098669746,0.6530080398096777,0.6529484425680547,0.6517102264603518,0.6458102975318122,0.6432350871373027,0.6395257307262306,0.6386261647592615,0.6369572217265052,0.6352773105047351,0.6363356241592708,0.6347581744745353,0.6314001191913783,0.6275930312506,0.6287115286754466,0.6232575296487177,0.619336476724526,0.6247515675213541,0.619885497025513,0.6249526337089634,0.6234697354156421,0.6172244167126553,0.6181483717693563,0.6142326904624827,0.6148725264265409,0.6138011524335824,0.6122575580619628,0.6116972791195969,0.6097116737016042,0.6102244911263685,0.6068016343718696,0.6102682218603138,0.6090404023533114,0.6068494413459602,0.6087735015835575,0.6066365012860007,0.6044227365551967,0.6023099909422548,0.599841133441223,0.600994402081913,0.6056488553362552,0.6024219926724842,0.5982922053556855,0.6018058301085732,0.5967414920925436,0.5972070098798723,0.5907378991756382,0.594979284833439,0.5973476205991513,0.5908461538672206,0.591496214411162,0.5907023869011557,0.5895324780862553,0.5908074518298388,0.5860982967423982,0.587101247526202,0.586267645053898,0.5849115959901775,0.583461065153618,0.5816074406176326,0.5786523971573153,0.5824853131099761,0.5787605615440738,0.5769223706689262,0.5767547510076011,0.5780019388498195,0.5761764929849261,0.5764935740512791,0.5726325610707296,0.568761264457734,0.5707757366146018,0.5709652077491715,0.5605841745786656,0.5630965071100649,0.5622811908981935,0.5648077021090541,0.5611904393333851,0.5639622749302846,0.5565508647754064,0.5538910769749925,0.5513643015789318,0.5542212235150523,0.5508089200786853,0.550793529265704,0.5502639543967794,0.5422813454033644,0.5499382113664323,0.5429020418029826,0.5408616460197639,0.5436730224605865,0.5376814286130549,0.5438035708349912,0.5360449189971636,0.5347492352511604,0.5365351548543865,0.5340715896316219,0.5308743477810616,0.5269353794031587,0.5314651827666795,0.5289947661566615,0.5270105813700007,0.5280985467900138,0.5183944314725175,0.5205313171877434,0.5227407491581724,0.5223165726554954,0.5175587998159003,0.5185913177067667,0.5133879878328432,0.5161942339241271,0.5131620537425298,0.508980912649066,36.76651905203573
train,sample_0005,0.5718239375840127,0.577510073746404,0.5861904690434778,0.5957122095161501,0.5952622716405827,0.6003867095625484,0.6064963402237531,0.6092906098487272,0.6189933787821487,0.6284971504160113,0.6342747035636247,0.6355937852866235,0.6464008634017817,0.6517161329788058,0.663222239380217,0.6618490992054109,0.6747326166718384,0.6766763653148764,0.6891806660416717,0.6933528329837708,0.703803977659873,0.7085183076540291,0.7143943342667791,0.7159946955522278,0.7317054934590677,0.7322886377743971,0.7351856553395667,0.7465063205711142,0.7545576690841496,0.7583890902741434,0.758274013788943,0.7702330481704828,0.7729488893768008,0.7749307699749166,0.7800031264064211,0.7851937527152983,0.7883521226195094,0.7945387934914405,0.7939260144195461,0.7959030515122646,0.7986025293814392,0.7988907265357302,0.7997018319638789,0.8064919688986346,0.8071228818195987,0.809678053328333,0.8099392192823864,0.8060257321401038,0.8072756006783157,0.8067670766203525,0.8028260246192671,0.8036175422472517,0.8031754946272832,0.7961755429282416,0.7943270993611122,0.7939582600735609,0.7915518112885447,0.7960430292506505,0.7844702468037762,0.7860176938236576,0.7822758453301781,0.7780755421138534,0.7730565653595419,0.7727538747068364,0.7682719955023378,0.7623929845202837,0.7616197890116972,0.7605872150280235,0.7582513169434268,0.7532210953742402,0.7500111393539206,0.7482692790830799,0.7464949159112,0.737157650262848,0.7356995650122408,0.7319805678013993,0.7327102994527575,0.7278962149435243,0.7218427911235632,0.7215300712224433,0.7183353145004444,0.7180238224177458,0.7154632647369592,0.7099995056812903,0.7094346529747638,0.7033681845935535,0.7020004771476656,0.7034595957585537,0.70475535817431,0.6913029743767928,0.6918424349061179,0.6933498130062015,0.690026111270861,0.6865643392263188,0.680162246911449,0.683295881818099,0.6832328919472328,0.6798362293315758,0.6791179684685253,0.6774685870653686,0.6745222827285252,0.6768688402862979,0.6700917439444902,0.6747014073294122,0.6658957624964356,0.6665129062272714,0.665374723969102,0.6629924665264754,0.6618043030258256,0.6650759616337283,0.6590280435587178,0.6605914381908011,0.6572895689398016,0.6515861968525525,0.651633158109794,0.652247658943041,0.6454284530196719,0.644228411908886,0.6459711678736435,0.644113905076373,0.6397414690116112,0.6380474546902076,0.6363271173476033,0.6340566709216355,0.6306127611368395,0.6274015827021604,0.630761248131485,0.6248363227416526,0.6251578883393348,0.6200262776088299,0.6200279298177218,0.6152164546703568,0.6168297063010464,0.6091629804831491,0.6072665229770298,0.6046965643462567,0.6019844851483778,0.6037473186810183,0.5982814298416592,0.5944626774556843,0.5940172101740379,0.5919384386491557,0.586767094604977,0.5836857937812977,0.5766719374127425,0.5796225948248288,0.5716561793799935,0.5728793696292152,0.5729916094227318,0.5678011192877288,0.5653583263756357,0.5627810283724293,0.5623745795746053,0.5550275587321369,0.5584942275133643,0.5574114380140505,0.5511654670175061,0.5508200899288078,0.5477516027468203,0.5471656299731308,0.5441295838959602,0.5411404535522231,0.5359265611847441,0.5375429101873498,0.5382966218448163,0.533117196420803,0.5310053019741914,0.5299208453368202,0.5339990653100128,0.526722874293039,0.5264515680833677,0.5287975650355164,0.523027972421951,0.5237491092373703,0.5224552152672665,0.5189410808364365,0.5237513104412668,0.5201930151687734,0.5222848160589387,0.5182042619744806,0.5159387639249514,0.5183899499517644,0.5195020993606364,0.5144090760502515,0.5097479225814342,0.5137272013587048,0.5125333193176939,0.5104095627106329,0.5118621110903727,0.5095190562228459,0.5098228067725235,0.5076649247181806,0.5100342648352723,0.5067136442896066,0.509256598822818,0.5062453537385505,0.5078121178908669,0.5052917557954794,0.5065914209663136,0.5065091122661922,32.373207796854345
train,sample_0006,0.5361107869564082,0.542574403182066,0.5420851774026242,0.5455870483549943,0.5474404081900657,0.5529980037987953,0.5542811747291608,0.5601013168925463,0.5634418112016444,0.564435397418863,0.5725028728937913,0.5756278775014975,0.5726661981159573,0.5834983371947263,0.58421314251501,0.5882164851161021,0.5963647362166926,0.6038651817059328,0.607617353623213,0.6076857098137441,0.6162371409851244,0.6157503909427051,0.6199304194476681,0.6282551472583372,0.6320053621084547,0.6365729346949258,0.6437504950939414,0.6444598569836612,0.6489020368717029,0.6541030331057076,0.6581724337333806,0.6665476555858347,0.6668905373768295,0.6732772400468106,0.682607822791134,0.6872744783397375,0.6896400662894656,0.6945847642657049,0.6970827048079574,0.702801046873496,0.7164073203422775,0.7172847073022556,0.7235577798982427,0.7254670422274336,0.7326491876634267,0.7319066660057091,0.7373942508714666,0.7447626562530574,0.7527507008406721,0.756430948888405,0.7563540317038584,0.7633301705021872,0.7700595902196865,0.7732776733305347,0.7759319968086795,0.7788081032940322,0.7908932015514564,0.7930664887385117,0.7948988413963458,0.7985533477339352,0.8003516103018078,0.8037365920143744,0.8096317563768824,0.813030203449608,0.8141313745086338,0.8188570304528631,0.8213111539769073,0.8251525898543981,0.8230574204046307,0.8250122718973787,0.8258684064264298,0.8267721117556159,0.8302713240366237,0.8295905555879821,0.8307686665109598,0.8314651875209929,0.827408618777011,0.8206189082103403,0.8281026767800899,0.8242969889719004,0.8244282974545064,0.821996362991525,0.8208617795061464,0.8147386571069233,0.8111839746422986,0.8098595450504031,0.8058715082300552,0.7978594304765776,0.7995365652675825,0.7942419174958788,0.7832561788637271,0.7783783504510747,0.7771633620168202,0.763996408890727,0.7644215068685745,0.7545252141187042,0.748653801630997,0.7447248617286003,0.7307261596968134,0.7270108537780243,0.7203497688385823,0.710180562612756,0.7083539720779988,0.7068975507406345,0.6936087812621027,0.6895358572645984,0.6818931577826344,0.6738189033150115,0.6695996248229061,0.6621258108903463,0.6566051562312112,0.6527801135015975,0.649146691543058,0.6422236504325054,0.6365952480589157,0.6291409245351707,0.6244652899723537,0.623526114575786,0.6183567964604053,0.6132299269317297,0.6115194437173653,0.6047213115776723,0.6026194623348898,0.6011514076298314,0.6003156022300535,0.5941345704960046,0.595321420547611,0.5891482718785394,0.5893556714564995,0.5871719230293582,0.5836838854076942,0.5856414080212045,0.5791912554536847,0.5813033607600359,0.5864119985559061,0.5790969463191868,0.5841589089810264,0.5771302315881244,0.5830513391217838,0.5785795899129698,0.5800707941470377,0.5798580280764052,0.5814176361973005,0.5792431289302912,0.5805023847522496,0.5839307322626514,0.5787522658239963,0.5836362892065641,0.5817702107350848,0.5841390650627458,0.5820982456687397,0.5843930504639424,0.5859684136133261,0.5799646435639209,0.583168198151113,0.5807195416945798,0.5841340854135874,0.5859385616218433,0.5845526618915579,0.5790359649468378,0.578288507503415,0.5800023903581489,0.5822472474867755,0.5778890727818697,0.5727927127973943,0.5768683905089882,0.5747448332192192,0.5779422481166852,0.5755052375959113,0.5734854697492665,0.5722958036610731,0.5743612036245712,0.5724101837033517,0.5713399565888615,0.5677811678425633,0.5663355557991531,0.5620625244382106,0.5636916057324507,0.5591330659514073,0.5573400298508647,0.5563614489017931,0.5534484120457677,0.5497915714788913,0.5505045895714804,0.5507997113437869,0.5455399178408252,0.5420057720065345,0.5379225606854603,0.5408631436843455,0.5421019364008868,0.5371292550925633,0.5368023381158079,0.532265903044153,0.5308231601449283,0.532305784791565,0.5291261790597613,0.5305413849539746,0.5244937102987801,0.5235823111474084,0.5241536517090528,30.867474008729584
train,sample_0007,0.5226654240457467,0.5240951677910201,0.5240816623249211,0.5315251618430811,0.5289681645781978,0.5283990005571011,0.5328252486102866,0.5363731532883107,0.5350656481143562,0.5366924987820574,0.5392894162695769,0.5449537523762054,0.5462980792117254,0.547883574426905,0.5483788886511671,0.5466123968598307,0.5494485888412395,0.5544120734842163,0.5558711410033768,0.560818548781144,0.5589029647091069,0.5669068238074642,0.5628815511029912,0.5592681661171326,0.5718970745646195,0.5698085776492615,0.5710533862034801,0.5746059338488301,0.5731546424978153,0.5759815975042972,0.5835693697380694,0.5817189673059062,0.5864202714754955,0.5860405617381779,0.5876166143053618,0.5823005247696511,0.5869986300600758,0.5897519120208506,0.5894806419680546,0.5878352681763972,0.5965810632837699,0.5937353669630427,0.5916478936138349,0.5933775856813615,0.5944025514910257,0.5975675827411745,0.5947967306204568,0.5970592311334083,0.5949776601820825,0.5973281024426176,0.5958562456805314,0.5969035323155754,0.5975811657718318,0.5961678903353287,0.5971861900503903,0.5960587118017959,0.5997269634607844,0.6010688642473263,0.5956606213160052,0.5991180549453762,0.5992805220436573,0.5992079360134119,0.5990229069860422,0.593730271098789,0.5969979939329053,0.5987402261935167,0.6006717643185744,0.6035299572424775,0.6068711758747013,0.6014229338761348,0.6089803617926108,0.6114958108497799,0.6065923822278305,0.6087159691436159,0.6099473868118952,0.6166028289499842,0.6150472033810184,0.6195223806918287,0.619597917550225,0.618790317772755,0.6266897751493495,0.6239381790690163,0.6287425661635637,0.6280428731706312,0.634231869134321,0.6427669865844553,0.645706698143247,0.6467082113492709,0.6506200062450552,0.6551466914693547,0.6600044553688039,0.6620635971920453,0.6655521476167349,0.6673034176165351,0.6799333196156666,0.6722848935246113,0.6796080803744748,0.6856752364248127,0.6933005395061449,0.6961514528645762,0.7029949091115257,0.7063168184515491,0.7113380612136393,0.7148585304761702,0.7199814228778383,0.7274381767305969,0.7234207557062705,0.7350773578938454,0.7409864346932881,0.7378410146537833,0.7428401138526817,0.7466146145186111,0.7465554318684879,0.7519297146057788,0.7608551463676257,0.7607688637737553,0.7651897696207259,0.7686297048929326,0.7683487387027578,0.7675600386140358,0.7757457501684344,0.778804438716149,0.7773606242187567,0.7769943469478087,0.7847767528983226,0.784797194957313,0.7862190253856781,0.791790710093224,0.7886037787955791,0.7855890773256927,0.788101052517431,0.7846868960041544,0.7825644903483755,0.7904922019140572,0.782612418088352,0.7831345763647389,0.7881072777202796,0.7844882914802587,0.7821750503565166,0.7822155549262803,0.7809905986587593,0.7816156633917091,0.774184702246111,0.7756725034924571,0.7696102372181748,0.772701472248239,0.7717952364081289,0.77118460801594,0.7643908009260363,0.7612503034877961,0.7630717339410106,0.762786482705242,0.7577919617947624,0.7498048769175112,0.7472771441954951,0.7421443406390177,0.7399899775748207,0.7329857559284241,0.7316316049375071,0.7344691150490279,0.7294521881984376,0.7199353879067251,0.7181950973082958,0.7142158049930631,0.7071377637852936,0.7066186488331477,0.701806576905495,0.696136178633126,0.6912122111274535,0.6835417636378414,0.6844500186147857,0.676319043723016,0.676090992934473,0.6650996448998809,0.6601638631558475,0.6567845303294587,0.652524054631633,0.6471928126948634,0.6361678474523004,0.638212082635271,0.6341614579883672,0.6230263900568214,0.6188937111125822,0.613100534530437,0.6097574580181925,0.6082400192768836,0.6040132571993353,0.5977088566315406,0.5945165611305,0.5893775747628222,0.5833067892017805,0.585573724878127,0.5762842819950543,0.5745764410592464,0.5672588622619672,0.5611274828249656,0.5619384333061793,0.5609669278589915,0.5544529852914926,0.5470356410636933,9.101025964542723
test,sample_0008,0.5345230695536759,0.5347468747790534,0.541680608340936,0.5426892524204099,0.5398035663859607,0.545710107048094,0.5430811244737141,0.5482080486870107,0.5566361665511907,0.5579947983674867,0.5615954867210231,0.5662160226995598,0.5640589681633059,0.5651299236322813,0.5752094691584089,0.5742359233819238,0.5827814705054187,0.5811211314727139,0.5880888679220821,0.5906498126993229,0.591336702813682,0.5959748840485598,0.5973290719616491,0.6032074171180917,0.6076172000333088,0.6067661372961597,0.6125646387488601,0.6193363593732997,0.6168917308183153,0.6204259877690034,0.6268850418033566,0.6263672209430899,0.6295727774881107,0.6311906785701777,0.6351295612131977,0.6348615593711434,0.6382294794307537,0.6416927955604738,0.6419884269919824,0.6451736652263134,0.6468865514411432,0.6494934334039802,0.6521524217244614,0.6534860288233947,0.6505799529645717,0.6516408409497242,0.650402064433226,0.6534612562525898,0.6586884596863698,0.6588801267116932,0.6564368561715787,0.6597645077068293,0.6601849222993463,0.6618816888034246,0.65828884448908,0.6583136780127782,0.658233016128153,0.6607135884978332,0.660826697405883,0.6569609887548197,0.6612944560149959,0.6563690999532127,0.6627449715143716,0.6554143229254704,0.66272168750578,0.654558754083971,0.6601514818746009,0.653737941871674,0.6561339170761162,0.6545944472102445,0.6533707857972647,0.6570304167110568,0.6419847882680397,0.6477252004091123,0.64710263536087,0.6468332296996286,0.6387373404358052,0.6470005285651096,0.6415511870792799,0.6409828166481617,0.6397324461986459,0.638022634312519,0.6341984916147249,0.631926515444477,0.6329617061286935,0.6315910725806194,0.6293277901922061,0.6289262349887876,0.6220182105886202,0.6238844052820538,0.6214566589541838,0.6166214347505401,0.617777713169803,0.6218042879639889,0.6165011176218043,0.6117005735894969,0.6093076603094986,0.6104535531319665,0.6091693240307234,0.6050797755912144,0.607868060607329,0.6052850053414642,0.6060712237961912,0.6086837052984803,0.6050721434770311,0.6064649064296533,0.6045085502350269,0.6087420298234063,0.6103234352405759,0.6083918659230001,0.605615784562949,0.61079207380351,0.6025608593630446,0.6143221700301363,0.6146576195605034,0.6109963190311615,0.611034214066702,0.6159064164377509,0.6156634668221073,0.6227416778724685,0.6254238967544126,0.6309157751006731,0.6315533842080792,0.6368158918127332,0.6381786934032792,0.6425381785914028,0.6475012968275657,0.6519467892236426,0.6552481161577086,0.6585511426757082,0.6598086256190692,0.664000374299442,0.6759257065378886,0.6768345263769774,0.6798716678478873,0.6914565030438552,0.6951195390393529,0.7024733137292379,0.7057683393703179,0.7091034294492402,0.7203406199153287,0.7226980777930297,0.7280961973804829,0.7314698974422891,0.7396730744269114,0.7443722590361893,0.7448671897120971,0.7505197778532036,0.7534401082957809,0.7583888280228501,0.7605744553766394,0.7629783160004731,0.7666302231929101,0.7692421051727987,0.7694830249021962,0.7751349698262708,0.771423299925174,0.7721213227536993,0.7702261078942323,0.7719627935864509,0.7695078919891961,0.7693784687114121,0.7708685588535452,0.7709762499660688,0.7658822133539085,0.7666241828770322,0.7629071429328949,0.7563459536690479,0.7579326486880722,0.7462824123163376,0.7467550311549606,0.7410096023068231,0.7353465239361882,0.7302022680381076,0.7247421121153202,0.720811633004014,0.716349101352129,0.7094022510257816,0.7028216357581678,0.7015203169270804,0.6893785753391187,0.67946469373619,0.6762081011411066,0.6705569452585991,0.6686245110070829,0.6578057936460632,0.6480706281424646,0.6429644500961125,0.6347463149601937,0.629313166983908,0.6263352147613839,0.6231752309931963,0.6137096382727185,0.6084471882818766,0.6077893032240949,0.5960055850863833,0.5945133135889593,0.5882467209586422,0.5798180186919094,0.5793251716432168,19.009203503943027
train,sample_0009,0.5035284915345989,0.5160851714054929,0.5102684360562008,0.5095744053800694,0.509420522849233,0.518521895069208,0.5133259346138422,0.5163453243597103,0.5126660447193077,0.5205917169028248,0.5161217247493652,0.5206774471961889,0.5171731102158651,0.519076851274281,0.5302577596409717,0.525847239392557,0.526862124892614,0.5285374119334492,0.5293939308255413,0.5297331542957316,0.535068491340867,0.5302175396467421,0.5347949244683019,0.5388774771840718,0.5397676670271613,0.5406552315877299,0.54331654944677,0.5469682534471336,0.5464986937555429,0.5513799819534737,0.5575952183436688,0.5592571094866654,0.5574960241376027,0.561004902891082,0.5639627752249259,0.5669188134321124,0.568968973376479,0.570046395540546,0.5727241170901205,0.5770227753050496,0.5823501822075866,0.5804247051714043,0.5883079359272348,0.589752982146045,0.5927167655947199,0.5911892815508504,0.600085724644736,0.6018078572468241,0.6075019883557164,0.6132904096855073,0.6124975388776464,0.620302231356038,0.6231438902259007,0.6322062586704473,0.6291122380218781,0.6344434339450705,0.6373315824987663,0.6472584980692913,0.6440607551369444,0.6460138797651058,0.6541644691412928,0.6586417438600327,0.6594953801196124,0.6650507173865081,0.6661678970162133,0.6732356812291372,0.6754206269511492,0.6821605257803781,0.6778947848298617,0.6822341769587994,0.6867462396176442,0.69209740634799,0.6902660738032008,0.6927404651621873,0.6928853221855079,0.6980052938964401,0.6988880382546262,0.7026985803749493,0.6978887823330719,0.7024728849055689,0.702483438579264,0.7023342585580875,0.700735513593027,0.7001358093640674,0.7081962545772299,0.6995211546333567,0.7012470538842205,0.7064393790357844,0.7021507322294633,0.7020290682989131,0.6959687485677197,0.7002356668202583,0.6978472652884694,0.6933606051659496,0.692131820960854,0.6923362257389281,0.6926831433207643,0.6905476572681046,0.6835537248566259,0.6854986464760695,0.687355059237154,0.6859699178169987,0.685959241150017,0.6825826532828468,0.6806280178215807,0.6831852024355346,0.6779465048538039,0.6764260468743837,0.6795736504150118,0.6742470281312685,0.6731131352342107,0.6794109879743319,0.6794283508557049,0.6730950065827644,0.6814015902205641,0.6750862582866256,0.6804562757796027,0.6796963898542409,0.6739966724838693,0.6796493638377361,0.6786033336783821,0.6837325797158633,0.6832513048092974,0.6810137451403502,0.6901774163489045,0.6861080137857992,0.693219834406568,0.6944807895427157,0.7021672290560335,0.7015124001680266,0.7045238299761829,0.7069712171023539,0.711933657753828,0.7146942541348097,0.7192076555809886,0.722892599966521,0.7256401054095283,0.7282850418851095,0.7314519196245732,0.7375280449398673,0.7380552063417194,0.7417928539314156,0.7423222043710875,0.7460099900352753,0.7492444228438472,0.7541755942497846,0.7548351591437428,0.7558964205221197,0.7648292032262984,0.7662054712788018,0.7669176691741979,0.764920709658131,0.7673850431245534,0.7681897391522488,0.7711718074173068,0.7692034948506823,0.7695644231725511,0.7709482017825098,0.7716190381925345,0.7686652086589585,0.7715009952639988,0.7669988774248768,0.7614812262659609,0.7656929689308072,0.7624349648927291,0.7560356702444131,0.7546399853993837,0.7511269773196163,0.7488507135602488,0.7441089911722203,0.7375200374956836,0.7385187506745878,0.7323814170492718,0.7238239371153575,0.7212648916298923,0.7116352741808167,0.7062031193027353,0.7027719394986995,0.6980198491110219,0.6909696258176785,0.685680622903786,0.6809098502671831,0.6705908798233262,0.6715941742978642,0.6602742017913527,0.6581691216162145,0.6464001620652025,0.6484444575172248,0.6380325120677233,0.6323882338792594,0.6277477749387455,0.6226668707060943,0.6192313543465454,0.6111473292269289,0.6012508450006229,0.6007196598809184,0.5919100907925715,0.588970246250741,0.586264708541573,0.5789260378072957,11.313128873009033
train,sample_0010,0.50318757253239,0.5100617861344793,0.5037347543524653,0.5077444949032177,0.5086568168449098,0.5020921741885672,0.509461359176297,0.5095392363495534,0.5110089045169303,0.5137604553059419,0.5109197297907176,0.5128668760991508,0.5145927569907016,0.5170965943101694,0.5169268870450924,0.5177223171036822,0.5204577167669907,0.522145673634501,0.5226415034704938,0.5277536209549751,0.5257458056857998,0.5295673057291984,0.531071785972345,0.5339579313938693,0.5360677049350577,0.539648099751548,0.540964450638862,0.5403381323124407,0.5382627019451278,0.5404815567015339,0.5536708206806238,0.5555746590116265,0.5518648087110966,0.5552593864278006,0.5536926483978026,0.5604899230520279,0.5676430288667234,0.5698348854249212,0.5784282725781972,0.5786800742887428,0.5856394158275211,0.5880063539729425,0.5933104700545462,0.5906266609488604,0.5979973657927401,0.6039471524801069,0.607982608441899,0.6160192549028626,0.6186181486058873,0.6253598337466455,0.6290613871992774,0.6366572763298204,0.6404625977604622,0.6399608471874791,0.651093371704405,0.6560831594579438,0.6609412646884824,0.6657225144615286,0.6705642223160172,0.6792929600885556,0.6848604669303675,0.6864295183759055,0.6910165016904826,0.6934476994461858,0.6992403881431717,0.7098945113811225,0.7101279971400665,0.7100562521420596,0.7204949602449802,0.719978471871317,0.7234734966196343,0.7260697865021559,0.733687052994761,0.7366542789587954,0.7350673140048093,0.7305067329732571,0.7419107527094749,0.7389009480693411,0.7374560582995888,0.7383143477931218,0.7449698384418312,0.7433292874384491,0.740423287982526,0.7417391126198384,0.7361140506251375,0.7349079301095193,0.7311990835200858,0.7323574209229506,0.7290170452323566,0.7285193237477376,0.728565512625269,0.719592530968783,0.71572494687359,0.7142035840582495,0.7143094052361995,0.7112081251400817,0.702909801403698,0.7044428825891407,0.7001533499668688,0.6903007195636012,0.6887480302391835,0.6870170918847445,0.6801565163984916,0.6782660681311561,0.6780357951323497,0.6695447663861512,0.6672732089545181,0.6627453438520752,0.6575285807474793,0.6588369692832144,0.6537133913303447,0.6537025487854251,0.653039560018829,0.650156810404245,0.64651539179248,0.6443221356808149,0.649159483227201,0.6457669131554558,0.6462927917287937,0.6406406440747862,0.6461031515881884,0.6421308616017217,0.6413108619429896,0.6456595358182418,0.6447745481828254,0.6466637586555932,0.6487704038930194,0.6483188212078488,0.6538964990817434,0.6627172101795427,0.659693656629833,0.658519896614534,0.66189954895383,0.6715031105890569,0.6709895745536979,0.67823525031308,0.6791566719059524,0.6846919981852058,0.686424635389155,0.6901088892367425,0.696129467020147,0.7002744075310083,0.7014241770887508,0.7005803272798681,0.7137068702334621,0.715452346520702,0.7180983229519953,0.7213897796762305,0.720414385063803,0.7281614737201271,0.7279087041377383,0.7279943385651712,0.7374198475504965,0.7337844391991777,0.7342304218803433,0.7369194592125247,0.7394867762277757,0.7368858240257586,0.7344637292453825,0.7409994947624163,0.738789944892126,0.741265956761227,0.7347357056102759,0.7335166444133241,0.7349533124214442,0.729853629033005,0.7302261590828761,0.7175159958146098,0.7184070797464426,0.7196699141290451,0.7143359250438616,0.7098995057951292,0.7078198532146526,0.7005292238445066,0.6961962472911379,0.6865659351681911,0.6851458576636217,0.681373351342109,0.6778875366658245,0.6683976935026013,0.6612467067700615,0.6602280518534375,0.6524822754439608,0.6491767780109747,0.6404939992831078,0.6363332557607096,0.631297377179382,0.6221684745498279,0.6220812167014471,0.6150326683136426,0.6071728359166322,0.6026087407504238,0.5992642845412391,0.5896593527887899,0.5848153419996416,0.5840784989406027,0.5751050600732684,0.5743730972162212,0.568884992135874,0.565541129259282,17.426831536908683
test,sample_0011,0.5598985456813789,0.5662097388660597,0.5645380321752789,0.5709314034991206,0.5743107106807986,0.5861359285223307,0.5873875116764891,0.5920824968888474,0.5944197447569395,0.5986451876936758,0.6061327575590345,0.615260665239714,0.6154804545546175,0.6206345763181426,0.626800085200767,0.6303648444678551,0.635892261381009,0.6480930916008989,0.6508229600087052,0.6614297782206242,0.6633206064764989,0.6661484979905183,0.6771946295424659,0.6815737931073211,0.6842185356155113,0.6952699831766169,0.6972335217946453,0.7069514315168393,0.7068215536444913,0.7196666641911666,0.7199642656619218,0.7252193451672038,0.7283730025706535,0.7337915650448714,0.7377672930287198,0.7412972494637264,0.7480382793322384,0.753586007614377,0.7532940996714245,0.7564050471630421,0.7625548810467812,0.7651698462528278,0.7670249000824789,0.7680085996169799,0.7744673465999106,0.7748191366244626,0.7752066257824624,0.783088107957532,0.7797728593499791,0.7799260528721379,0.783338249074644,0.7853874529384444,0.7817351102827976,0.7852628701136234,0.7814827459295356,0.7897956295002412,0.7924778869704814,0.7863225720574283,0.7918122543472954,0.7900270264317877,0.7858151445867094,0.7848654090927473,0.7807116283965265,0.7846064141910694,0.7864496965552401,0.7869985280459828,0.7778164054804856,0.779073850361738,0.7828065398066567,0.775106238372876,0.7736853778940066,0.7723780923823074,0.7722936630087273,0.766016179166485,0.7646420790794959,0.7684534675453916,0.7639030001873155,0.760569247169665,0.7601837468105668,0.7498606647430367,0.7524770773653691,0.7425843416181668,0.7416107782393211,0.7388318659974313,0.7376237345041017,0.7330930670375632,0.7323432664851762,0.7242117978732552,0.7193838357613721,0.7182507270036858,0.7151031281095865,0.7151514094723097,0.7062965244519015,0.7032651669911125,0.7008363460655129,0.6924545078451263,0.692296161700783,0.6884390483864954,0.6866960234008288,0.6785524334993622,0.6707163880785313,0.6698655223632058,0.6676737079323152,0.6624622200883911,0.6556577430011237,0.6538107001542837,0.6519593077052785,0.6452836605960954,0.6421110320837207,0.6423076492428356,0.6373157396753819,0.6277403982911156,0.6277506313302372,0.6277753514747884,0.6212902167353014,0.6184840656439482,0.615870392594075,0.6143232027925101,0.6103419287262842,0.6121153517058274,0.6114046808790013,0.6054749680083382,0.6050683558821243,0.6010364588493777,0.600223029665125,0.5945011156171583,0.601750950238959,0.5974214185200689,0.5955518350254903,0.5970108391300178,0.5909323337291557,0.593793727606329,0.5903986660010274,0.591153859443262,0.5888229685411814,0.5910416372177127,0.5921620746466996,0.5874294237370304,0.5885636857634883,0.5898165260572467,0.5872478823286459,0.591306249852723,0.5842871452007967,0.5888321669142722,0.5908712840441687,0.5888520629143743,0.5887795524397431,0.5855158730833657,0.5886454082159747,0.5879924598272106,0.591157390979163,0.5867658365128958,0.5890326028529371,0.5888482972153449,0.5823970359921444,0.5816581788340356,0.5874595725312887,0.5872911816009492,0.5853050761616029,0.582718127896292,0.582806273816512,0.5820261378358231,0.5785867370589716,0.5778908153591781,0.5774870176208444,0.5749486840439338,0.5725062099712782,0.5751718954090965,0.5747107912102891,0.5729882325431719,0.5704499617924074,0.5724044050600577,0.5691576111748397,0.5640973771485241,0.5635286562814148,0.5614297357757556,0.5606086059058695,0.5589203368543328,0.5571856621145643,0.5562831524750761,0.5511313446675463,0.5547683260905203,0.5459881534859379,0.5433940476556268,0.544150333337985,0.5424889598020045,0.5364957773913626,0.5410476231048272,0.5420983924569681,0.535263543736145,0.5330115993765296,0.5313146724076613,0.5306667404776926,0.530296741767478,0.5267313487496792,0.5300436293031833,0.5237079619807493,0.524040173042604,0.5179648793626827,0.5220798821834582,29.062311904112164
train,sample_0012,0.5036098545279899,0.4989056491184394,0.50307716575138,0.5013336521213256,0.5049815877555132,0.5051197962489848,0.5009117966872542,0.5049962193128978,0.4994642050259052,0.5046846096030598,0.5048649238854301,0.5062129925843394,0.5053365722474601,0.5065173876902996,0.5082761634662828,0.5081673314066117,0.5061390669311576,0.5040273568900192,0.5102433664849119,0.5116380541346944,0.5113434860382052,0.510545749512244,0.5096484327243944,0.5161045761948194,0.5177321865185809,0.5197938576779219,0.517911427030181,0.5204198983841785,0.5225052381451117,0.5269509736402976,0.5275114734334342,0.5269463914783786,0.5298991331805782,0.5310921555997103,0.5319153786914929,0.5351022115843364,0.5376913459716794,0.5425988228026816,0.5520610297833217,0.5523512414170338,0.5562873988507927,0.5614121463612813,0.5602399116932077,0.5645004106185562,0.5697459533142736,0.5754426525033691,0.5814228243919232,0.5872419502285003,0.5888589416266647,0.5962738566244824,0.5960196161170253,0.6035388657521774,0.6052451417679933,0.6111190783038104,0.6201771955597944,0.6224843554335774,0.630435497886981,0.6333178924563255,0.6374934569979026,0.646125410529652,0.6495169681491395,0.6542024004294156,0.6622503250144369,0.6631478791713925,0.6677913983101024,0.6795139628251436,0.6835308090041445,0.6881523981774408,0.690963048293367,0.7022644520786919,0.7112801332764828,0.7087481865623194,0.7141474330748844,0.7214513511860747,0.7257979614992194,0.7269622830562668,0.7340794773258796,0.7391090117799741,0.7494191043629055,0.7459877935948939,0.7527332241877316,0.7572474673077751,0.7617434939640157,0.7660201666780129,0.77190239473985,0.7742691204966636,0.7781799796577007,0.7818933427737955,0.7822233053850448,0.787599276272236,0.7876426456356974,0.7902694769740757,0.7914762614532961,0.7978231718866919,0.8005668508593577,0.8037404102376372,0.8015096205583634,0.8131793435600313,0.8060993746887577,0.8100044096077164,0.809813989743856,0.8113333190666072,0.8143116843345107,0.8156847904301956,0.8186247901158399,0.8172956609663309,0.8195961950571495,0.818186393782687,0.8144211540563877,0.8155753271670492,0.8198053628376816,0.8174268459754992,0.8226960162658106,0.8144235985084674,0.8168121652999679,0.8134860530674886,0.8094127360463534,0.8107295784082362,0.8113896733164301,0.8093075020505008,0.8064487989054437,0.8050887649459119,0.7998311361719687,0.7974296169401769,0.7923231903963973,0.7895066512293158,0.7871737675717005,0.7811260769431777,0.7818541797012108,0.7772778130764011,0.7734658581053366,0.7705159614461785,0.7620267596674719,0.7591136005152055,0.756066638465333,0.7512591603648917,0.7411845378694075,0.7383934661502009,0.7347796469109606,0.7319351789298338,0.7304050879173655,0.7222025144667396,0.7148212220576908,0.7141454503968848,0.7106196073792441,0.7040266596858878,0.694334724589767,0.6891855435168981,0.6879106936060012,0.6812632384032113,0.6702196896147969,0.6706634828559328,0.6626843145912692,0.6597932849102774,0.6543664727300476,0.6509711560948408,0.6450425091468819,0.6414664315607104,0.6299663445177848,0.631871634609444,0.6268467048022066,0.6232651053480809,0.6210804518053498,0.6133382115566669,0.6110082049039858,0.6066466319066677,0.6008539622960805,0.5957662995478225,0.5982658583453324,0.5953841727287427,0.584593966624081,0.5857037406349807,0.5795257237180081,0.5765674998880184,0.5701285292757534,0.5691162224281765,0.5674717714141385,0.5615951117495364,0.560614754318863,0.5595586181195956,0.5540748064859796,0.5486453524700378,0.5507264820236863,0.545591999799853,0.5423105111110101,0.5425200267777511,0.5395848616688816,0.5346347638812214,0.5341232718683436,0.5322980738323787,0.5258257599996841,0.5263946672788036,0.5259314993091937,0.5216080087473497,0.5203722843556187,0.5182044099782425,0.5217577516222385,0.5176363988793103,0.5147187046362794,0.512903914173914,8.796657561566084
train,sample_0013,0.5044033897649219,0.5098693431164953,0.5102679778047987,0.5087002044840155,0.5068112055575511,0.5106130618751297,0.5117864187911635,0.5120062669713119,0.5121378295999232,0.514532984731553,0.509333708198274,0.5092461213696164,0.5139416727849184,0.515541457486582,0.5232325086827165,0.5155581325415454,0.5253049610326388,0.5210480857241447,0.5200563626407206,0.523914579224445,0.5241745353043626,0.53001158441012,0.5283821346642047,0.5327892866185084,0.5379950134553836,0.5392646101304152,0.5448950111971215,0.542393504456501,0.5463888062400515,0.5505708891692371,0.5571430099550976,0.5529165271770357,0.5559146551946892,0.5625446067691919,0.5632045766389241,0.5731772379253114,0.5743954826637255,0.5789146972328308,0.5831052882597783,0.5905344922999722,0.5989441154735935,0.5994076680809242,0.6065179882596875,0.6140465452561096,0.6114619733028567,0.6234990147789854,0.6312659388268809,0.6382550368445687,0.6403453259610361,0.6472466106830876,0.6596085605729096,0.6678678303900474,0.6684642004341232,0.6754658769497247,0.6810292246115301,0.6875836628137502,0.6947005851172737,0.7037161790344477,0.7073441436088075,0.717977924399566,0.7207234396529008,0.7316820947880923,0.7339590431019908,0.7395740179380454,0.7478887990061558,0.7514310884938997,0.758173230967185,0.7663691836795179,0.7702697281798365,0.7724126833793339,0.7774206375180814,0.7818418009239331,0.7894707317483126,0.7907034489347282,0.7947711628492431,0.7979984280475567,0.7929683298268893,0.794838640098329,0.7966538595795933,0.806794781780833,0.8021133802860407,0.7951997900563909,0.7991327408960797,0.7921225877262076,0.8008811949682705,0.7961991342435997,0.7918082504784822,0.7863901558029849,0.7852656968861531,0.7861370914629814,0.7793155362246467,0.7714466149646277,0.7678351722753386,0.7654291059423646,0.7650622385681226,0.7551578786846171,0.7510314830890544,0.7489392239136818,0.7458081533222484,0.7366790768876181,0.728605705976852,0.7278201301251446,0.7187989996292012,0.7125829831650632,0.7047719700879957,0.7042943249567275,0.6981840760081801,0.69384912075174,0.6878151252988238,0.6789574764230566,0.6762771513441485,0.6769131710979166,0.6690183585371385,0.6640202280966409,0.6603014469998272,0.659072838609827,0.6582021851595766,0.6556668311636127,0.6531752185902524,0.644789322039562,0.6462246544050554,0.6453843812296827,0.6396291302307253,0.6427355024697454,0.6394729537454545,0.6389421996769922,0.6430607055092018,0.6416636978127126,0.6442202675112766,0.6357074199246483,0.6409884044792233,0.6443143754111873,0.6465097998280593,0.6457961389647489,0.6452427778268968,0.6518463768338293,0.6482743230818312,0.6564011927639464,0.6563466340216354,0.6576496168389014,0.6586378020051635,0.6586440675402464,0.6619872131902491,0.6687154519888231,0.6730718303213034,0.6716144468165655,0.6713456745858499,0.6662265965056312,0.6802647855658008,0.6790344237708205,0.6817047706171896,0.6795484492956014,0.681186405353916,0.6877810316547491,0.6831703875641686,0.6892793849819578,0.6877907704790269,0.6802057456941745,0.6854733906198389,0.6886168823730866,0.683259615779348,0.6865583252127372,0.6842365478229206,0.6825633415305955,0.6832278779779996,0.6776431925876711,0.6795600569398558,0.6714455970171719,0.668344524589287,0.6709850748418971,0.6645342857172047,0.6662085486170202,0.6621868847126711,0.655403366413781,0.6572324268020615,0.6473248554568014,0.6477643816704035,0.6389003164882928,0.6329453256695414,0.6348843259663819,0.6282328478613154,0.6271187386494953,0.6196257730875485,0.6190722337966236,0.6146938705771936,0.6094632796136286,0.6013172808451748,0.5996135233157114,0.5970185839584855,0.5889897497545276,0.5837106609508872,0.5806592256826247,0.5758381735352649,0.5736777658109078,0.5727162882154697,0.5662784171141626,0.5656438809785893,0.5574942732593601,0.5536013344007416,0.5503011449694963,18.453804061642373
train,sample_0014,0.5232332736220913,0.5343289789563476,0.5296482924035948,0.5298878619373464,0.5381794822468108,0.5384649602413866,0.5408725206801651,0.5410259144193574,0.5495525949795499,0.5475883797386915,0.5501446114313886,0.5515650833684049,0.557258627604196,0.5600450040947442,0.5626043797509591,0.5628151712376931,0.5645609755527619,0.5705001275175904,0.5707750201769777,0.571428191103251,0.5794693830845314,0.5793438414009235,0.5867779605519028,0.5838284491853009,0.5836400476040595,0.5896473532431696,0.5964143355075819,0.6010115821704073,0.6016387357602624,0.6019371962514765,0.6045920655469101,0.6069518302781325,0.6152453678977534,0.6145965273954324,0.6157719047025337,0.6202148433369182,0.6209852546046077,0.6211992300484336,0.6266380534041349,0.6278396795294678,0.6364155491080421,0.6380928006996538,0.6368703310973849,0.639128587519608,0.6328140396338751,0.6371910285936325,0.6400355981653975,0.6475871794868877,0.6514645684788922,0.6506116993750115,0.6488160240485621,0.6526375397093378,0.6510517781300257,0.6599996190985853,0.6581852923326887,0.6640220997247567,0.6618472391851936,0.6572650561183337,0.6644484645638116,0.6633846978880714,0.6668075374789492,0.6695619627657468,0.6768990328727569,0.6750897588516014,0.6736312129358479,0.6713743092154519,0.681007644630247,0.6774253125265965,0.6823767851142012,0.6870830968879523,0.6840223786228805,0.6882440186021076,0.6968550540794929,0.6923443422749883,0.698104467275799,0.7031467256869801,0.703264274619365,0.7039098079133099,0.70890430484248,0.7082011531346809,0.7156541904051039,0.71328431695451,0.7185359298883642,0.7229292859696527,0.725859737686599,0.7285321063920446,0.7344076290645717,0.737052130674909,0.7373620734030069,0.7439139248198826,0.7499383625928968,0.7538090013708596,0.7533689462549628,0.757353510709021,0.7613242853008599,0.7720362671467247,0.7735375656701644,0.7692150626538015,0.7766511267348688,0.7821228716672168,0.7854429895931944,0.7855354022466539,0.7871202359707643,0.7943560130157349,0.7974579040263592,0.7993022856837154,0.800724746847062,0.8035308670676262,0.8051470097629194,0.8040337629432956,0.8079302472133276,0.8135772753192191,0.8124542352924874,0.812127846277856,0.8060722618265265,0.8075472180910344,0.80675486741425,0.8119923699238487,0.8116375581057043,0.813830902396811,0.8131527170933374,0.8040440850048247,0.8039558608435602,0.8059593165571467,0.8026704696851188,0.7992105887889813,0.793459762910608,0.7880243052422784,0.787771055798169,0.7817635943353898,0.7783589598604016,0.7739150737847854,0.7680536586372575,0.7596282498940593,0.7597399451753084,0.749850632820173,0.7434672023396646,0.7390512285261206,0.7358991755334938,0.7319392914384224,0.7274845300456808,0.7139212786312048,0.7140460429979576,0.7057723019644079,0.695685083869753,0.6941009431004981,0.6879156566232936,0.6786613977915898,0.6750921821859237,0.6688900386209339,0.6649378555583054,0.6561057450998975,0.6573868750740837,0.6461457199585621,0.643198726996691,0.6395255314517434,0.6311111161905079,0.6270332382059691,0.6174485550962472,0.6166366587550908,0.6050678551022952,0.6063435195876455,0.600236987599205,0.5972531773704249,0.5925324933425178,0.5909011243230209,0.5897662957406238,0.5776389679867895,0.5746013321439764,0.5762473791200265,0.5714023998617551,0.5708177844316562,0.5616383805576893,0.5644108716639118,0.5574540055074206,0.5571245544685681,0.5536422388731687,0.5498778138170562,0.5497364081138114,0.5456076294893343,0.5403204947089002,0.5450717109010277,0.5405000032626331,0.5386286162412329,0.5372451743119555,0.5388819489155753,0.5303382074038065,0.5318361358993281,0.5307333311114667,0.5315081706096634,0.5266528903664924,0.5297343089553458,0.5295986221363227,0.5299786658892609,0.5236778633595958,0.5222115902884349,0.5246258445424415,0.5218143092921144,0.5238474406641662,0.5201637104756411,15.32262288470446
test,sample_0015,0.5159635113459237,0.5142878792798385,0.5146801856739519,0.516639124769344,0.5212051977496152,0.5238156457209755,0.5127607704600681,0.5180013444846953,0.5230763999909028,0.5219149335407255,0.525116654532522,0.5250816453166651,0.5269340213562237,0.5288775109185513,0.52763273900039,0.5344656848137916,0.5338068822048669,0.5352676308206081,0.5361894015852076,0.5429213196621426,0.5406762277233549,0.5428893814504596,0.5462720872743856,0.5463720244079413,0.5545250275173244,0.5501473071304757,0.5556628564249279,0.5600434863260909,0.5620711539116955,0.5668101642035348,0.5670902783269393,0.5702296451171872,0.577704156876357,0.5802162195727125,0.5839704435695371,0.5856811531610246,0.5906873523388911,0.5899998130142561,0.6025062098042833,0.60148017704702,0.610068986359167,0.6090446520418465,0.6186895526659082,0.6184376182826732,0.6259177593645088,0.6312346232808307,0.6333891416018717,0.6407933579662797,0.6466998606756897,0.652202454500194,0.658218386917713,0.6605164770581075,0.6632432142146726,0.6728632565327449,0.6827091560365242,0.6837607172386329,0.6861179426005268,0.696220596698818,0.6947857702791732,0.704832739161782,0.7040929055228305,0.7124873061167737,0.7160664706149689,0.7206582495462466,0.728409518557007,0.7263488790959967,0.7336421401384801,0.7377926724707426,0.7431447953587826,0.7439489716588654,0.7500628124182477,0.7528028005647933,0.7520237411847704,0.7555528406159735,0.7536815491678932,0.7569578309153001,0.7520554606691361,0.7593795961264034,0.7599898318645619,0.7574847291545163,0.7555348152630299,0.7543238328127533,0.7551138752073452,0.7564311882820547,0.7519859287731852,0.7530030316403482,0.7479455527579375,0.7465675657665669,0.7395863925983704,0.7403993971489944,0.7333933814316157,0.7324803285154291,0.7282597518224116,0.7255878810347973,0.7212767895458647,0.7150658383223671,0.7113545257523649,0.7065315491698452,0.7030623561120171,0.696849419086953,0.693751944148773,0.6934163496821524,0.6823387939863128,0.6811832606649368,0.6690197587465574,0.6682686101519346,0.6647278421767272,0.6666678997354842,0.66053503033399,0.6523943998295454,0.6468584725180617,0.6496380907752024,0.6471836020253219,0.6363015158792702,0.6390638532504852,0.6364090708664443,0.6303550176531139,0.6301053840821618,0.632662568924576,0.6342497224129436,0.6298643635211894,0.625946756287153,0.6271286578809276,0.6269725146900571,0.6334677936627071,0.629278543358627,0.6300029531195712,0.6325403503234339,0.6325260335707766,0.6327437752282223,0.6364815034292721,0.6378101090708498,0.6353055153993824,0.6436549560170837,0.6463894141770082,0.6495702090214251,0.6587658884895827,0.6503161898107541,0.6614343232719686,0.6621666297579332,0.6648385632675561,0.6639163688319787,0.6730491620081163,0.6798851859612174,0.6779298265172045,0.6802709473910415,0.6817062836863348,0.6850432803154641,0.6883265829934213,0.6924665272222895,0.6953993819485854,0.692683279388068,0.6950928443932424,0.6994552698065017,0.7016401936004749,0.6988348919133043,0.7012928582491924,0.7059189804801314,0.7022855495301702,0.7000508097495626,0.7029116774856994,0.7010079343466404,0.6989571709715909,0.699641579249457,0.6946027908435296,0.6926155549727221,0.692546854001783,0.6872145651182646,0.6876196259263345,0.6846566743917462,0.6826735819071708,0.6783727036751339,0.6722730103162405,0.6730509994085752,0.6677425612299512,0.6594084234032447,0.654770738224515,0.6527137416801247,0.6551281319228195,0.6424576920583639,0.6360846590448774,0.6334289881130833,0.6296959507653693,0.6261830755841811,0.6164715452530977,0.6137275501359671,0.6108267912596317,0.6002966807288447,0.5975033101487862,0.5909043699025628,0.5875529739187596,0.5823712176572367,0.5753760819278819,0.5722763731380724,0.5719088851087929,0.5693373049312599,0.5594545969052837,0.5535667332019455,0.5506178708927806,0.5440634328619317,19.468992859892715
train,sample_0016,0.5047640039389748,0.5056477319099935,0.5059008161951308,0.5014416478091077,0.5075155078301702,0.5047118525630012,0.5074179608215897,0.5022593951077182,0.5103537099204702,0.5081248140996889,0.5089538505900402,0.5056375203798072,0.5112809289716299,0.5080492843985719,0.5071863175518091,0.5104785306795212,0.5096168143199629,0.5114430777159789,0.5111399571241545,0.5139501550812403,0.512947537398757,0.5078033135485263,0.5068758422836496,0.5129689300933312,0.5109340787886533,0.5161629678567232,0.5156198311321749,0.5110430556825426,0.5127837076426482,0.5221394554359787,0.5147072182103519,0.5167559499518527,0.5172599217673164,0.5185205376283496,0.5240647656702709,0.5235178956008912,0.5198101637755961,0.5280089179471116,0.5199388493617038,0.5229078960718178,0.5203718876625619,0.5220598177769796,0.5258401813216166,0.5205180780630716,0.5302333852525757,0.524670989702416,0.5244221947036236,0.5264725225895903,0.5264302113802468,0.5280929169723063,0.5273474854240743,0.531750819059015,0.5301270645482662,0.5319974983440032,0.5300540321060663,0.5319302302254285,0.536171919890441,0.5374126697875082,0.5390941897606639,0.5398123425692687,0.5438071529691679,0.5454467067225692,0.5419751979486755,0.5375777078116065,0.5453161897308192,0.5433150499031943,0.5487484651343046,0.5469619334766314,0.5474033163287505,0.5537022087450691,0.5457442627476543,0.553902758281853,0.5602430143388255,0.5564900350669166,0.5574753873287863,0.5612361984587451,0.5623702543681957,0.5669813770795344,0.5678499221483961,0.5696088671566006,0.573696269418322,0.5736810701177842,0.5761692688786587,0.5774250608911758,0.5811596560505927,0.5885830222935565,0.5908664128496376,0.5921541094439489,0.593774761302694,0.5975804545746454,0.5976389185018205,0.5995045353343665,0.6040849955698103,0.6124565234097636,0.6112157159761531,0.6146864854412237,0.620834162413053,0.623013934924296,0.6299215763907652,0.6322821931993566,0.6352169347189963,0.6435084044004851,0.6399790188773373,0.6444482636798692,0.6497989869912302,0.6606135314020152,0.6654532854376092,0.6655380617133447,0.6724859358758001,0.6811884592617042,0.682391220215879,0.6805064523559158,0.6858780156394435,0.6969031022236083,0.7022225181003705,0.7107023857630094,0.7138504786505204,0.7175636039350819,0.7223841242054831,0.7295975471056795,0.7343834678918661,0.7352826348772724,0.7487454926985058,0.7504614972797945,0.7617008829266417,0.760401837313343,0.7693829806893375,0.7735173352223936,0.7780285429838514,0.7856744323759296,0.7860303084582194,0.7977737613805558,0.8023773339363856,0.8067141218331786,0.8112951515034791,0.8209993717417527,0.8211161054856735,0.8270377361124237,0.8344590186821508,0.8405423108229406,0.8464614320213918,0.8463024468207644,0.8540187375862641,0.8589270483436547,0.8625106130477564,0.8615525156429793,0.8697222564414311,0.8728936419826319,0.8748157610623732,0.8796174864333669,0.8764760003087124,0.8774925119882253,0.8827393147585784,0.8782179062331813,0.8805543262192317,0.883487847157202,0.8830587023664285,0.8828523348195152,0.8795412075891402,0.8768194270789333,0.8720306410971288,0.8757880558419684,0.8699593255799376,0.862003749180744,0.8592896400399994,0.8553781851477156,0.8514830828642951,0.8482279331317932,0.8417359441170149,0.8350106163279839,0.8290815765499944,0.8220450695874799,0.8146629486488299,0.8065756976151617,0.7963263479688832,0.7943144470823308,0.7823165346943286,0.775746348764067,0.7665055014397326,0.7570524839218714,0.7515680318949705,0.7396633942474179,0.7325479463528679,0.7254060400407502,0.7149671521129799,0.7080069721342022,0.7031378960690318,0.6913701534532826,0.685936956781366,0.675372949077144,0.6675380098957862,0.6552737754508927,0.6523501453122322,0.6394679676647936,0.6346581199664606,0.6276690995576266,0.6227111817782894,0.6174424034469945,0.6117329725247118,0.5977993239038475,5.0
train,sample_0017,0.5175596624763349,0.5231592876000591,0.5228468839091873,0.5228830191280922,0.5268084332834868,0.5248796376180387,0.5254493301565418,0.5296590554922689,0.5299877545123486,0.5356105863091072,0.5330594797757439,0.5430056420072843,0.5366069059307388,0.5367429679546609,0.5360646691820199,0.5452421622739541,0.54798455213565,0.5473065046661171,0.5511798906307697,0.5533464961983184,0.5537876889185498,0.5554603825977391,0.5607312897453807,0.5614961466288273,0.5596654940463175,0.564493500589188,0.5667979137681326,0.5686959120498287,0.5688737005518177,0.5704104167685183,0.5704632886505319,0.5729776626702185,0.572417461039125,0.5782269678194216,0.580281333007817,0.5807338657138078,0.5809272522001718,0.5852278734253269,0.5832921151146843,0.5857191741713286,0.5888753414947294,0.5881257972669734,0.5933468883054102,0.5902254373846757,0.5953596437401054,0.5946366445050477,0.5950834025627902,0.5973785270468587,0.5974194305944363,0.5945795063999587,0.6026305538172975,0.5980511963156748,0.598028165689157,0.5987713349257016,0.6037992355693838,0.6040592852611004,0.6048496416658606,0.6077541327202347,0.6020912522286711,0.6071510086562633,0.6066746855241903,0.606822372800661,0.6094080132086033,0.6100128081338683,0.6081236164228953,0.6144988780412348,0.6147332267368472,0.6168501427435179,0.6150442592005539,0.6127182660422428,0.6136361622520841,0.6172513921335597,0.6165632516687239,0.6186281036403378,0.6188501787613369,0.6184701441503115,0.6218290598045007,0.623880655058981,0.6240735652687187,0.62554868704732,0.6274651158304977,0.6302733287529663,0.6306816101670005,0.632048445979532,0.6355131896460754,0.6367056570019007,0.6427240190835074,0.6373489509197312,0.6412268833112587,0.6384782949508706,0.6453305195569077,0.6480819626903508,0.6470034027694308,0.6549191863012334,0.6512754418157153,0.6599288736936646,0.6556393977771713,0.6573943479205844,0.6651895593112913,0.6707940895237164,0.6675860287602036,0.6740356695676467,0.6734064818658502,0.6757551450989177,0.6772635526580393,0.685110609114614,0.6848962088615589,0.691586519605581,0.6949920112993584,0.6944852379895905,0.6967488079806743,0.7014480063059243,0.702929981498243,0.7085416766335237,0.7134534246532542,0.7120498289034347,0.7129893467264881,0.7169389466159806,0.7234824401738948,0.7242680990971087,0.7226142890324384,0.7262159994479173,0.7325989215212199,0.7336913856301877,0.7399044494347674,0.7404824574669304,0.7381932258179734,0.744000815222025,0.7481840946881059,0.7502312185604076,0.7516061363562365,0.7529905077750711,0.7567238830765584,0.7587689274164191,0.7615730016581379,0.7572291053049216,0.7627063677484576,0.7640162290476009,0.7715031533429181,0.7708781782521794,0.7723255154082527,0.7721845814335093,0.7706793628497,0.7739808226118111,0.7761469425549177,0.7761738296995954,0.7795397305575558,0.7800390340301377,0.7775934174885497,0.7784549248972491,0.7779043690782991,0.7812990786789291,0.7789937789296693,0.7750775278194489,0.7775365780678944,0.7780209207030934,0.7754315531427196,0.7699600237446819,0.7688526922477799,0.7709109114897703,0.7622337346701367,0.7592908328487992,0.7568458521932928,0.754207584688811,0.7478044359699505,0.748961893598217,0.743368160908418,0.7398124925225512,0.7333210744979521,0.7288881760854793,0.7279909898965106,0.7183506301485381,0.7165249532456391,0.7108466023106985,0.704443970205669,0.6996962253358261,0.6899235513156255,0.6899229358389803,0.6794567334922291,0.675453812203948,0.6684313071655494,0.6643599045168596,0.6524599303767051,0.6476646621660715,0.6432539511534258,0.6362787238777432,0.6321472393602102,0.6258939379423656,0.6226777085478757,0.6167448125324103,0.610094080859911,0.6006839915723693,0.5981026284466537,0.5953916862989803,0.5922989509334204,0.5852473748672753,0.5774809615647611,0.5727151133915652,0.5685471229805258,0.5665751133747373,10.156443715117035
train,sample_0018,0.5323509462713341,0.5314107728410596,0.5340959391165163,0.5341118185581395,0.5397884361171563,0.5374238368248767,0.5468043457120603,0.5454203504017687,0.5477524603405268,0.5482534337748076,0.5524757432884784,0.555205967054169,0.5611953852370634,0.5614552271725182,0.563717971123864,0.5647178812244253,0.5706535629761671,0.5689329770342919,0.577683264016766,0.581131495566778,0.5863305258615681,0.5867178240160007,0.5909871109635705,0.5896203584889778,0.5898096513500365,0.6015539919500977,0.603722599951976,0.6098891016244029,0.6172849994821568,0.6128361737408987,0.6168096409831925,0.6216406258170715,0.6266868397781128,0.6240438179214174,0.6319208189394924,0.6354686688959408,0.6417121797383097,0.6435762482300064,0.647958449429033,0.6456104053646445,0.6483909761182529,0.6547900796922097,0.6559038077571522,0.6612847473696024,0.6620589034092195,0.6648450125504222,0.6680369562837523,0.6740471644879074,0.6759624742860684,0.6773511179113798,0.6802606320842874,0.6911665875255674,0.6916263645263354,0.6887806334392258,0.6973134456639916,0.6961803899124768,0.6999019215497284,0.6986118499378338,0.7054572911790298,0.7035317360996192,0.7095124242275229,0.7148656307197528,0.7116616456297036,0.711045278415167,0.7148473106727224,0.7161928038654702,0.7201623404898125,0.7206344288060105,0.7234268265403265,0.7230551935330068,0.72551647146162,0.7235103527757278,0.7177229088927507,0.725046045714298,0.7262614993213378,0.7236941453113637,0.72627779701225,0.7258025841987494,0.7294215934670868,0.7221780443979134,0.7272594153339829,0.7233753315679184,0.7224073419191823,0.7159357675793079,0.7153620995326208,0.7185214090819309,0.7141507744028917,0.7105913692800564,0.7120114838886686,0.7102490224620193,0.7045315994953361,0.7030485686082608,0.7047539031447756,0.6956424059022829,0.6952172259172611,0.6895208328113164,0.6913061895661404,0.6873890260832305,0.6863621066151083,0.6807335146035293,0.6786276321263877,0.6723183865926268,0.671486138811052,0.6718566177297234,0.6691756518589463,0.6615147282230349,0.6686101217182526,0.6591268103958282,0.6574514962983897,0.6591331325667482,0.6538538748364373,0.6478140462613617,0.6488679852199699,0.652955961550347,0.6425408361365553,0.6438421323560674,0.6460333404083388,0.6485666695025578,0.6437860029586483,0.6443136731061752,0.6448926455704653,0.6474042294025326,0.6472685893837145,0.6464160943988595,0.6503572412595313,0.645988913504417,0.6445733331809135,0.6519181599015433,0.6497098393878832,0.6535905712354249,0.6547828710945359,0.6617363427643389,0.6570361646973325,0.6612163590657206,0.6606040575843486,0.6645544045474552,0.6664852550575195,0.6704356478438052,0.675003222349095,0.67818986312781,0.6754167452244244,0.6792597465715298,0.6822773467513121,0.6868059340834809,0.68300034457306,0.6883255982120029,0.6877457551476245,0.688066018835597,0.6877985410306,0.6919247035957803,0.6964173775032886,0.6977088745522693,0.6946692058672054,0.6999804544020363,0.6983341295685238,0.7030126839890676,0.7009767616369349,0.6996229659391264,0.7003109569075971,0.7000241816835872,0.6967985753449086,0.6975941610686162,0.6943504147414463,0.6958211492005246,0.6913462335406301,0.6833130383742589,0.6857334992076212,0.6774993468134264,0.6832322109190544,0.6743033429454137,0.6745489357475749,0.6710217939908976,0.6686532670396254,0.6639021531189417,0.6593182093834398,0.6563129636148434,0.6553470467387156,0.6501233741679808,0.6505907251220218,0.6393186091098741,0.6352917636891486,0.6355136974915403,0.6237124815732743,0.6189876846748498,0.6208392340347938,0.6141310732778317,0.6105094110811087,0.6038972105843529,0.5981222872684514,0.5916926045079351,0.5937918741634405,0.5861832519993238,0.5834553208247315,0.5828912071516634,0.5718048957762218,0.5743093234435261,0.5686584106683845,0.5630735941129306,0.5598782304583991,0.561264255263823,20.854107695082195
train,sample_0019,0.5701150169023875,0.5734759901435287,0.5831140996286192,0.581033839437162,0.5915961725159589,0.5932716731678424,0.6006219178886806,0.6054523393971917,0.6103593832506353,0.6202354729255902,0.6244121677599229,0.6303153871291849,0.6332328522761805,0.642848288245943,0.6488886421209225,0.656590336866996,0.6617847756606011,0.6695054283409586,0.6767760513105606,0.6817280874868983,0.69121161801927,0.6932685985642472,0.7024767771788204,0.7065272249641982,0.7100119137326375,0.714579037598716,0.725562694221256,0.7289511161816946,0.7329036647401406,0.7385709368184072,0.7432388464979446,0.7496182134212187,0.7482579629348896,0.7566750329943615,0.7560137414891004,0.7568740524276196,0.7610593479244735,0.7667817079483894,0.7658545036291101,0.7666504190920598,0.7755539716283313,0.7714031426801593,0.7690700273179165,0.7717824705105143,0.7725926432162658,0.7676570313100404,0.7696829496774134,0.7612952387868999,0.7652529902595959,0.7644096083722216,0.7605881652964551,0.7677307771347051,0.7620616208789726,0.751902087817475,0.7495196030774237,0.7479166156912354,0.7476897345312647,0.7421825668253206,0.7330515926459708,0.7293181709212015,0.7276751898080974,0.7272415172808222,0.7199508218421894,0.7129105224650572,0.7082741949962491,0.7088744017731748,0.7051246759551649,0.7026188905806843,0.6910623211922164,0.6879914997380425,0.6843039430119019,0.6810717329697349,0.6705296543840732,0.6733962533543224,0.6662835139767175,0.6637857940615653,0.6585581634734583,0.6576773646419742,0.6479768735377744,0.64217630599597,0.6413662624496848,0.6371648846978799,0.6395998854889973,0.6373479587433949,0.6331427351580913,0.6255246360417502,0.6264803592987613,0.6219244026795453,0.6172243465872621,0.6200318119425935,0.6098347166510159,0.6133665430584837,0.6094991012202547,0.6106586969698673,0.6026100217390179,0.6035517809669707,0.6062129949775525,0.6027580365497337,0.6015331147722975,0.5987223125897897,0.6013368163980037,0.6007502746513744,0.5998446009769257,0.5985028994208947,0.5967926859213253,0.5984714019790884,0.595106860956511,0.5954720070792985,0.5967978018650304,0.6000116147752577,0.596964823649125,0.5986854216569069,0.5981234297543891,0.5984000024361937,0.59592134777818,0.603157354887434,0.6004351880298667,0.6029229535607307,0.6054908663878964,0.6048748286606962,0.6110034307923928,0.606133006147046,0.6161549281154676,0.6079008735049121,0.6138231482752731,0.614083911943503,0.6147909276413455,0.6166766350330912,0.6189081030363313,0.6236346263351529,0.6253945432298217,0.6254319291873677,0.6284819342324,0.6301295016384127,0.634768018056052,0.632204997068616,0.6356692531214663,0.6368382632050138,0.6465427477171268,0.6437108094959011,0.6442640150834058,0.6510455647369291,0.65424486616715,0.6523507536004381,0.6530644816946485,0.6575834608993674,0.6561439162688547,0.6580635589675001,0.6626348013286815,0.6595235756802803,0.663977239206828,0.6595262963482309,0.6594267867015648,0.6632098652874758,0.6652638251841113,0.661121397938212,0.6604372295417249,0.6664039237848044,0.6622697872414901,0.667111041017577,0.6650419478848046,0.663394968562788,0.6560859110087381,0.6555519924925834,0.6589298576533417,0.6511196159965105,0.6550782392636222,0.6509947616817127,0.647532799639696,0.6459562114844277,0.6404257458835523,0.6385397914152511,0.6356233517064103,0.6320685072319954,0.6334747443793952,0.6273349842830602,0.6228720907657918,0.6207096437401073,0.6155601700140783,0.615667332861106,0.613526246066793,0.6067642240067898,0.6015458672640619,0.6033339557229299,0.5907589196943831,0.5907903078163856,0.5897815037772393,0.5882592036964818,0.5815991916778396,0.581341634691379,0.5732235930978491,0.5716867367227003,0.5636582343626083,0.5632847426434993,0.5641264145090168,0.5567737216281274,0.5572729774344449,0.5511356887160033,0.548041455061442,0.5446721445512309,28.52121063104078
train,sample_0020,0.5461458671345758,0.5528143455898922,0.5544933359370908,0.5550430890969198,0.5610431424098,0.5576310360603032,0.5703060578122155,0.570928282200908,0.5762194127940299,0.5781922102808228,0.583911017871434,0.5873258875435547,0.5926239653508636,0.6009361726912593,0.6032353635390679,0.6079563861905372,0.6093040378174704,0.6145940290171477,0.6196333848437238,0.6235639269189648,0.6328682306879383,0.631739633848256,0.6372942218199033,0.6367475628655365,0.6464554568138587,0.6496060875275627,0.6551723834287999,0.6649786748960692,0.6623137690883387,0.6665166701158742,0.6695636535050244,0.6738717815650892,0.6803208308957428,0.6861002176932653,0.6847380631996784,0.689282320029297,0.6894306275402928,0.695195898190688,0.7015493677751778,0.7007126841411625,0.6983721730286288,0.704835245960837,0.7099182652405349,0.7094621176262619,0.7126631358918849,0.7167339732319137,0.7120449365643824,0.7163784650354896,0.7138547085647754,0.7181711056968093,0.7146926605405544,0.7159594717192876,0.7203744067027815,0.7189331489751424,0.7180908615405599,0.7157747567945927,0.7190846651079249,0.718480412036154,0.7156275492213902,0.722448124342016,0.7188955678990782,0.716512868953442,0.7131704411940486,0.7129134824031413,0.7136773693013306,0.7135552810769172,0.7096849927958107,0.7116413590173715,0.7101504340579162,0.7062254530643308,0.7093152785953595,0.70316638120686,0.7021622346070591,0.7034945500607265,0.6979278563780598,0.7021585917643458,0.6945726978978509,0.6972801410048493,0.6990190785322301,0.6901808467981779,0.6919932472254151,0.6861323335291426,0.6903776957106265,0.6846334128743161,0.6803994816765819,0.6844698779897254,0.6792375163097929,0.6820078818242545,0.6778758188029159,0.6809266371646427,0.672236746265465,0.675524353513788,0.6746521615881075,0.6642472837790564,0.6716231458089081,0.6665153443206124,0.6616388960667874,0.6630658386940829,0.6576410372291949,0.6583959878563335,0.6621221399711762,0.6610604404731254,0.65972700194601,0.6557756044386316,0.6520207333479997,0.6527306079693174,0.6518886051565954,0.6490221159703098,0.6518202987811974,0.6458598009695646,0.6490965149182248,0.6500430348988812,0.6488121015074761,0.6458866341942833,0.6464195385292442,0.6436234989137009,0.6422549496274825,0.648019650926223,0.6455013999764085,0.643165246748466,0.6407969209734979,0.6437635341773318,0.6455610509448753,0.644783297416788,0.6453083917761189,0.6440204820770923,0.6427071239065106,0.6419468069356036,0.6405185635702839,0.6445907262929135,0.6465764294306524,0.6513168904683218,0.655175187237249,0.651368347769395,0.6555702955249925,0.6505303474888272,0.6549271388340845,0.6579851037731241,0.6547788178750545,0.6498949910640186,0.6523869037794069,0.6573315252517926,0.6566484324340671,0.6596839329871336,0.6616570689566877,0.6618820649942124,0.6567425780919093,0.6586275978041666,0.6569939931575113,0.6617700034421039,0.654163650518166,0.6576759461469917,0.6588984769666768,0.6594265031665671,0.6569277825676423,0.6551096743111895,0.6545200475178262,0.6544072649526441,0.6505546205180128,0.6484108299547461,0.6510543255838094,0.6490820008307688,0.6426722453813911,0.6471072627197016,0.6431292784861273,0.6428475602669894,0.6402214340106719,0.6352129270954443,0.6333364135518369,0.6324140777115669,0.6288373351766988,0.6269434349902475,0.6260594637932385,0.6190059046438936,0.612296041119317,0.615240622850145,0.6086225389164756,0.6066368184630156,0.6035360488082498,0.6018479014641902,0.5947940228046641,0.5938167174660581,0.5926870874945918,0.581063115644417,0.5797566208738975,0.5776415149302749,0.5702622296554064,0.5690915926910924,0.5705620426883466,0.5635399091474106,0.5594253442963293,0.5577311168073535,0.5525090055979419,0.5529526921221797,0.548073534493891,0.5421746202018122,0.539602210050674,0.5390268967879663,0.5340518266026983,0.5360920762799067,27.988797597892564
test,sample_0021,0.564974993168738,0.5684201279589276,0.5742784881879782,0.5803220976582042,0.5806391102932482,0.5864857691663451,0.5909786046814077,0.593844350122834,0.6041648017676478,0.6044506259066242,0.6107839931775008,0.6176494090685115,0.6224907186708935,0.6274361756415296,0.6327724975216398,0.6405734874325688,0.6476761021745977,0.6544234554519692,0.6564824695828961,0.6682098549520872,0.673259206398116,0.6791859978519186,0.6857039082783876,0.6893134102465786,0.6969010013099042,0.6994082435134501,0.7099515202835783,0.7136174852873862,0.7202255680619457,0.7254560156826018,0.7291676714844331,0.730366084074019,0.7413014589718621,0.7442050995398041,0.7492452032314438,0.758326399970971,0.7572444923316434,0.7598393039492641,0.7671426785843871,0.7648304437796682,0.7694784585468376,0.7763226958402499,0.7819877448197099,0.7865627182323083,0.7801247030640122,0.7891265210497047,0.7953482548149038,0.791920866471943,0.790552947836742,0.7929875631078562,0.7940582740926725,0.8002236613893916,0.7908717145847379,0.8003957433144904,0.7945700232838191,0.7966887911626459,0.7970877744243412,0.7998449698767811,0.7960668874596311,0.7968605640939023,0.7985691006523371,0.7919140544846384,0.7982968688241553,0.7924456144843107,0.7961207953395327,0.7890392850492702,0.7932311788185511,0.7891148621420792,0.7885270187097668,0.7794006827304517,0.7822167445016377,0.777027763816472,0.7770118134058761,0.7801479613991931,0.7694635415848705,0.7723910656226614,0.7684049677629109,0.7662994147953592,0.7615679009228061,0.7593766931854405,0.7576617581374521,0.7551220558790526,0.7485740501382224,0.7495279211573009,0.7428959500171473,0.7387640951160872,0.7369088831302015,0.7290771839891843,0.7215549520355762,0.7230609808529692,0.71922019652826,0.7112342524222158,0.7116122368407629,0.7093257243362504,0.7041348650951587,0.6973241854094383,0.691551499526474,0.6909429620082878,0.6816583782220582,0.6812687014561141,0.6794618565890173,0.6743979070780975,0.668623338750546,0.6625498041441871,0.6595272561553939,0.6635424883355197,0.6560740944563107,0.6491960033128827,0.6445148799147323,0.6456112930537021,0.6324576854791517,0.6330986037366777,0.6287955661795417,0.6300571170056248,0.6229246644096688,0.622262859686542,0.6175491671159123,0.6199541742763558,0.6104467985155577,0.6114124854799481,0.6072217925802154,0.6078062889169725,0.6068664242726912,0.6004124339346809,0.5980261517255405,0.600789673429479,0.5982474439380863,0.5945497189023337,0.593653176225345,0.5924157694166512,0.586320715285062,0.5867993146367589,0.5899800674570335,0.5818477433186905,0.5889305937624959,0.5771612362057552,0.5887260770718705,0.5757974681823215,0.5849520574661558,0.5808956951172919,0.5778376108791414,0.5760847048381221,0.5819963336941321,0.581176423042938,0.5754777540507569,0.5730650631148557,0.578774009120953,0.5727979093269335,0.576909702311203,0.5726021416969328,0.5734542482293983,0.5725065388785122,0.5682317902102446,0.5733945022441695,0.5748417053879616,0.5717545458929629,0.5730545267846525,0.5661493533523464,0.5649731315481908,0.561211196315869,0.5656357505461269,0.5632044263617004,0.5628791120415835,0.5681116414907231,0.5596406181919171,0.5615499772110101,0.5607788047847666,0.5597684551908271,0.5544619646936236,0.5600387830256849,0.556217425111704,0.550929220969829,0.5562488237904544,0.5515594914386202,0.5493206530752681,0.5520669802856112,0.5458717610664333,0.543917058954115,0.5460270335252754,0.5423161834994276,0.538423987489469,0.5407789522828034,0.5374235999816612,0.5391542173640103,0.5359579517643899,0.5302277874881984,0.532276059611226,0.530833994533508,0.528456615410117,0.5278893663577291,0.5246673751516444,0.5284889827523217,0.5206300617934088,0.5254452093523686,0.5221231827555872,0.5202818614061122,0.5166996482131776,0.5187604071102055,0.5152626753544407,0.5158017148311479,30.9804832982054
train,sample_0022,0.5256966006773791,0.5281047867951046,0.530827102622494,0.536224398312619,0.5380229522164728,0.538066412325256,0.5379111888848579,0.5438927279494971,0.5456739101984934,0.5482563930196966,0.5525776064487721,0.5503816770426622,0.5504673134171216,0.5563383063066115,0.556588922586839,0.5606662037074733,0.5616523294813912,0.5667335077549145,0.5685545772617961,0.570206473599213,0.5704345385465279,0.5748219324245896,0.5804702215929815,0.5795467796181438,0.5818467387171636,0.5832835542554309,0.5884647539188422,0.5837800972991527,0.5913386094124886,0.5935846764090756,0.5896483752009257,0.5942501533169048,0.5946705596079225,0.5975500144264398,0.5985596609381268,0.5982004486636248,0.5978335699991282,0.6020636764768437,0.601140044596514,0.6037457297694395,0.6004771189105798,0.6071611425640592,0.598860133275701,0.6004242049352512,0.6006909101998543,0.5968986556424565,0.5986061583438197,0.6001723492172475,0.6017827052863491,0.5996706335682274,0.5986919398042787,0.5968172942479671,0.5928126326055914,0.5936369854958312,0.5957124319993748,0.5901228935588165,0.5889540553138485,0.5958680296476839,0.5867307521133127,0.5845689824058654,0.5871329683981189,0.5829191120633928,0.5818644263137039,0.592864027483743,0.583048322753721,0.5858905750002499,0.5855687384842403,0.5793632954815953,0.5805083506196994,0.5835014736989776,0.5800586438226834,0.5845641747772861,0.5853847172466072,0.5871241893322322,0.5878172863116808,0.583619591419313,0.5891331719327312,0.5874978888393969,0.5920172812078779,0.5943268662100115,0.5953444646815989,0.5963709957234906,0.5993235809444691,0.5992202609142452,0.6045315568006233,0.611473870678772,0.6139543558417283,0.6204728923205237,0.623421338399013,0.6247489862482691,0.6295134301278991,0.635244593106276,0.6339473289783017,0.6437710514027506,0.6533279440839018,0.6493910529386508,0.6586928273433752,0.6623022290451918,0.670019373808402,0.6729313806211177,0.6814090638154036,0.6833820747644097,0.694565117274593,0.6971679288351074,0.6995306494681325,0.7090551912697559,0.7114646857453713,0.7230344753287836,0.7261223248650508,0.7292180520379843,0.7319104823401817,0.742624063479876,0.7401702699873858,0.7517850704809028,0.7539590923516184,0.7541254907300556,0.7544636401518452,0.7633626579390349,0.766335490897924,0.7647675745658512,0.7696414512959904,0.7755558520067253,0.7796278454227832,0.7809546928456306,0.7788629692604514,0.7806059821407145,0.7814840956550528,0.7795026413226462,0.7885875155261335,0.7852519308386223,0.7889110409577482,0.7906724977248885,0.7864450858090043,0.7905219533203691,0.7902175196262737,0.7878081802332786,0.7926573402216203,0.7860363343200345,0.7885529159947651,0.7857309391169297,0.7871025677417081,0.7811897595578148,0.7861499076246966,0.7813168964733883,0.7800972303670732,0.7794615761465965,0.7748556043761352,0.7724419619986214,0.7742183733429322,0.7700687622200788,0.767202608184251,0.7643328456144486,0.7653614831302242,0.7561428344114072,0.7591102514350961,0.7514120819379918,0.7501894293014484,0.7435173336703625,0.7426217558064331,0.7414368960229656,0.7335322264260937,0.7273866706906221,0.7259398425822707,0.7222097952936484,0.7185630193882813,0.7105734559409914,0.7077435167419961,0.6989107430726945,0.6967095876769798,0.6900009769888691,0.6910319597013659,0.6809761005485722,0.6737015345890579,0.6744681402882022,0.6663340081419261,0.661025148806138,0.656971961383389,0.6507309585736027,0.6489635392550738,0.6458419819585004,0.6364244424785497,0.631590267133008,0.6222132786606924,0.6199868157589665,0.6096467964041682,0.6075233472923689,0.6030666510144417,0.5965396028912135,0.5934947702728344,0.5900634855687868,0.5858561563096278,0.5847160431666707,0.5773380314444511,0.5719023316749152,0.5662423069356788,0.5639132068556449,0.5582126588496074,0.561282386829574,0.5492337602142585,0.5477041929309163,9.567922283812043
test,sample_0023,0.5724944470707383,0.5767367808222921,0.5821901771553161,0.5862983885494419,0.5902535277083008,0.5990967418421298,0.6024562301251101,0.6107663841976563,0.6149631454920708,0.6234416777090906,0.6280450942372302,0.6380933952722392,0.6430732021261503,0.6442994221881213,0.6570557563060684,0.6612842038668669,0.6691633895680549,0.6688786737596889,0.6827835353622667,0.6892329699432899,0.6928328505164535,0.7018698502979567,0.7081040414244608,0.7091441300373489,0.7191362513744674,0.7243413810813438,0.7279599793002154,0.7321793837087268,0.7376787782066894,0.7442403183255271,0.7507826202239984,0.7487011948458397,0.7585903396368565,0.7597472297039394,0.7583543606558143,0.7623697721225331,0.7668217995609621,0.7661692823832963,0.7695444419512878,0.7701666366434505,0.7738829983587326,0.7712056998718988,0.7758386940512616,0.7737388326970293,0.7695907209270652,0.77092072783615,0.7690283688848185,0.7670161133584947,0.7694584309278516,0.7662226153619961,0.7620858046161607,0.7524955957861672,0.7533770172696972,0.7481389640445645,0.7457023583653217,0.7386389715924294,0.7384992869704848,0.7318587275937822,0.7303052258325998,0.7207542699229066,0.7168510390581352,0.7073706623182431,0.7107928909535065,0.7042408328210528,0.6968273558442892,0.6919706815516845,0.6834073335797051,0.680046738530252,0.6757690016771196,0.6686578937447221,0.6640935952499899,0.6597932295191817,0.6491249083437254,0.648883698003118,0.6399400626678304,0.6372978146005244,0.6341488668038542,0.6300336110874409,0.6213045013596267,0.6242291944549323,0.616866330866098,0.6128269548455482,0.6058970827599303,0.6067099614672099,0.5981920671497588,0.5936358681605963,0.5916988248358933,0.5879330702569697,0.584468906103782,0.5791333031087139,0.5809724900809737,0.5825978184047208,0.5755425156773321,0.5757018122053346,0.5714039073704869,0.5709417215275147,0.5677924802954954,0.565583605667659,0.56869533405528,0.5653142044865327,0.5638597433829864,0.562265105387404,0.5593294146235636,0.5638937115004589,0.5636821424598626,0.5602806253109676,0.5603587122164068,0.5633677871947089,0.5653615446387341,0.561450694849716,0.5650139627574288,0.567126425944777,0.5656405658811574,0.5663892601561726,0.5721984006850909,0.577222486927957,0.5685156371757297,0.5777800458934355,0.5796081877201368,0.5798686377938187,0.5760207231085354,0.5766086755520454,0.5821606385133399,0.5869132475119542,0.5904193176232817,0.5949573827083439,0.5978629421798369,0.6005514141540644,0.6020918638531987,0.6028083189237852,0.6080048480568632,0.613350028728947,0.6151219529050017,0.6225148470131406,0.6209302228182876,0.6258086126347011,0.635155772497878,0.6356784710148566,0.6397371196776019,0.646200746396038,0.6499118373635465,0.6516154774865877,0.6555333207497096,0.6557896857024794,0.6604171306300235,0.6709480977711249,0.6680774919493931,0.6696828510417535,0.6749325971056018,0.675772100123399,0.6784365049148744,0.6830083147001061,0.6761659141925399,0.6822058960470564,0.6880129656880425,0.6855000529954396,0.6835810973912051,0.6870918718682254,0.6864376809139866,0.6859508911453662,0.6876237601705958,0.6844019351409464,0.6801511992278477,0.6801745245908295,0.6794076128890539,0.6792004584179779,0.678699674968454,0.6746837127419698,0.6684261361483068,0.6736725071186224,0.6663276076198534,0.6644219794249534,0.6623575558802727,0.6562443519665594,0.6506992525280686,0.6472473043878273,0.6449864635251246,0.6408411780895972,0.6380988535040731,0.6340932749794472,0.6259772517423152,0.6232184453318481,0.6196134366803936,0.6161166737003272,0.6109435829848405,0.6094698380927247,0.6020371866816228,0.5995497979141273,0.5872910968337818,0.5876754309681126,0.5852061869474209,0.5731525658511977,0.5780325715404588,0.5739627886651969,0.5666833498158805,0.5656188544527406,0.5563570308146345,0.555072640928695,0.55105742801334,0.5469421162660839,31.039457487203794
train,sample_0024,0.5513661724947934,0.5545536326727307,0.5550708595006324,0.5610806577663078,0.5635065905575964,0.5685128932108041,0.57110872010485,0.5773515105381457,0.5778781888348264,0.5792351202542596,0.5850183866928993,0.5911569052519914,0.5894946997183381,0.6005404422085325,0.6011484685282007,0.6029004983829751,0.6144842087497452,0.6202744155354475,0.6205720647494599,0.6256128799938018,0.6258237157414198,0.632915544570899,0.6335278514410241,0.6429665525099381,0.6425203007385754,0.6518270534465469,0.6511120483349517,0.6551209853478621,0.6543693340632588,0.6567127380114628,0.6679414290441446,0.6622219661825753,0.6662587813518418,0.673210409903692,0.6791026569360117,0.6731994244657289,0.6822119714493357,0.673526843121731,0.6807209929929279,0.6755566626166409,0.6808324254910469,0.6806890101058611,0.6804619254715503,0.6802552811838776,0.6794788186986139,0.6744089671673926,0.6739186122555219,0.6748740448380511,0.6755937621840273,0.6706508264877499,0.6739877608258966,0.6693656437511006,0.665415732134218,0.6659550281906937,0.6614840667639862,0.6616995919136427,0.6564423657580634,0.6587970609167589,0.6517239327531411,0.6490726238878799,0.6488102229217592,0.6479276069162653,0.6489594019965618,0.6444510415920814,0.6464392878044185,0.6360404559202644,0.6374775433406337,0.6343027000202177,0.6329375912995359,0.6340855202223274,0.6318331814514715,0.6329189917165705,0.6323332588409327,0.6302940737695208,0.6288711074583146,0.631362268793962,0.6334060969742978,0.6375866575105776,0.6371862712462638,0.6352265547388727,0.6366702131915877,0.6390134319363638,0.6425252890954554,0.6478184801977044,0.6501453704199828,0.6552907536452199,0.6523686799363712,0.6559263233178815,0.6585262373059504,0.6735918854913423,0.6723930889538732,0.6769834738137055,0.6816202865153006,0.6897734032494519,0.6943355494949573,0.6967867723201443,0.7107049264772736,0.7069523316369817,0.7149606208232286,0.7189310551187772,0.7237388474109141,0.7329423486601321,0.7368905192298154,0.7381617118223643,0.7504375961282563,0.7479284528405548,0.7584781815069986,0.7672034099967479,0.7695628497602829,0.7748736902138111,0.7805677289210287,0.782296564443508,0.7808584466588249,0.7893766485945238,0.7868095206095618,0.7881284556158816,0.7950129396581277,0.7912077327265035,0.7952232122035882,0.7979574564704177,0.7922472507043692,0.7953072207475913,0.7942893311107457,0.7893486860127119,0.7902744668539756,0.7870299453978709,0.7867646444582802,0.7842761669691991,0.7802554832381872,0.7766893463566769,0.7765649301969352,0.7734670191678944,0.766079561522139,0.7599375705765222,0.7522837506849948,0.7492500022651353,0.746412787362438,0.7354193713827898,0.7270749390206621,0.7257912816291066,0.7215008377423371,0.7119166655530013,0.7041694974304622,0.6936518774174281,0.6923152995853473,0.6888771451853193,0.6757502621923859,0.6718334707275996,0.6671427324733454,0.6524359351579232,0.653860365850864,0.6496829646319262,0.6428150871767757,0.6322179074868122,0.6231162877581086,0.6151226883130496,0.6184535533432729,0.6098410430910288,0.6037694998987525,0.6014623772974118,0.5952878009617688,0.5899572558744067,0.5832096349156495,0.5804099836987273,0.5766290307722394,0.5750300515129005,0.56719977631522,0.5620771218035415,0.563070116629304,0.5563945817337014,0.5512009274209976,0.5438088786046297,0.547829589250856,0.5416541302814389,0.5366351300985178,0.5348764472831697,0.5396256607137471,0.531764734249272,0.5312860336047547,0.5288321778418232,0.527119315873137,0.522977126047708,0.5213173824980539,0.5197040586262158,0.5198469137328401,0.5174317065487942,0.5164085786738503,0.5108474974179564,0.5162494148736418,0.5073951745939682,0.5089900029249506,0.5073886447980325,0.5082351444217942,0.5034381037901002,0.502582327227456,0.5066634472383521,0.5048955725374119,0.5001410969224135,0.49962925906161065,0.502804638433487,21.987865143663264
train,sample_0025,0.5024393372647366,0.506523020485956,0.506264972641139,0.5081821505082391,0.5085477524427672,0.5050498818151636,0.5089171933777423,0.5097627224457169,0.5085140578500519,0.5120790134076789,0.5101358927681369,0.5105681262649584,0.5085933725293194,0.5122561712125095,0.5081062923796656,0.5160765670348165,0.5096155898000473,0.5136869513086336,0.5167764134950341,0.5176433179669214,0.5174643463238746,0.5166412365373624,0.5153456732961101,0.5176765182060351,0.5198321819657578,0.521025903184725,0.5251710714467887,0.5203257142650788,0.5263464863962967,0.5277295434038761,0.525568855286786,0.5284312243494886,0.5273354775001527,0.5300453653681776,0.5326388480587892,0.534004249884134,0.5316782534760864,0.5301761056902281,0.5402674350460862,0.5387707154826084,0.540266174681703,0.5455345098017345,0.5427613292217043,0.5385024606827955,0.5464091731538894,0.5490053391966229,0.5466994907621121,0.5532105134324223,0.5479217941347465,0.5540899965919188,0.556180569129633,0.5598381859089793,0.5644406744953794,0.5610164111410952,0.5629976645656194,0.5678800131282693,0.5656212766068416,0.5701190733537912,0.5692343687211571,0.5716663217272201,0.5718180954163625,0.579548202701094,0.5758428517389698,0.5774264930848203,0.5812213241746992,0.5818187004539483,0.5854537928710792,0.5839191429961152,0.5897557758545295,0.5903370167580126,0.5901994784772872,0.5900636015482039,0.5947162243615371,0.5903342553880745,0.5957217736571542,0.6029513938477611,0.5964157688724591,0.5991574804934046,0.601742292828007,0.5997391530753955,0.6065492969110509,0.604140203356847,0.6082786404331243,0.6076613589511973,0.6091417680302251,0.6082255637434716,0.6122415214691317,0.6110030881879195,0.6106635101215879,0.6137958621384548,0.6136781086554595,0.6161023938851486,0.6142792889660936,0.6128640179956514,0.614408325791011,0.6176175652183928,0.61953212981279,0.6226317990208129,0.6208809577457878,0.6267830680496995,0.6229165568498793,0.6272777894190418,0.6250998132608052,0.626051752829978,0.6284690550087471,0.633629054232632,0.6331002282657088,0.6338950394743095,0.6384688603195893,0.6429443311242452,0.6469980885852679,0.6466333734622065,0.6498098278518694,0.6524313349657582,0.6615780990599696,0.6636137517979118,0.6641686517487223,0.6675848949530869,0.6713968784211074,0.679135500455239,0.684375841695047,0.6883891650720118,0.6940918420478908,0.6954652176821012,0.7048365642170334,0.7038321032761099,0.7150579012058862,0.7183277246861642,0.7275497007313709,0.7321695202237148,0.7420339474234005,0.7494663085394929,0.7499004087635399,0.7542097004521142,0.7648079449018004,0.7704014256729785,0.773563213482725,0.7802657203977454,0.7886591867633637,0.7927487084911703,0.7978513565443426,0.805992987236166,0.809597633501928,0.8151544333028535,0.8190026897190088,0.8261601327108,0.8332002231125875,0.8317697121127405,0.8387758190111525,0.8419804640848145,0.8461572238511768,0.8497217728528457,0.8520863842580266,0.853092586743182,0.8535843242216724,0.8587307912121809,0.8600265395170875,0.8563617938320284,0.8581694998506866,0.855892088439014,0.8514855250269069,0.8513632081136696,0.8497560913278731,0.8480940493357768,0.8468610270459551,0.8377398577236396,0.8389237601702138,0.8339563064205218,0.8276719877830034,0.8200247534979344,0.8118662181616372,0.8071686308733864,0.8008493459190131,0.7920125290428746,0.786854548828207,0.7735272338469381,0.7717734209404115,0.7637988836936365,0.7537610528194534,0.7480313855549725,0.7397683966709356,0.732753126931214,0.7251121550987825,0.71158110391128,0.70981118162096,0.6942545598552377,0.6877213177691979,0.6796239754401263,0.6741122852762695,0.6629213034788888,0.6556561529880918,0.6463415868287729,0.641239419710341,0.6320735281574041,0.6257104402042426,0.6212353833191019,0.611151857812022,0.6025919354726187,0.6036152062748531,0.5919393984058274,8.349363398875731
train,sample_0026,0.5699491515887067,0.5696016181125397,0.5759493445707579,0.5803267187196286,0.5852390089055864,0.5909552906525073,0.5957218597474055,0.5994867954322056,0.604765737220375,0.6126928882907449,0.617728951820345,0.629166582096056,0.6293539203854296,0.6341587951845289,0.6376665000237126,0.6484693541115596,0.6484093315304973,0.6582196586878206,0.6670815950786311,0.6738613052731193,0.6717563214242592,0.6802695081375432,0.6864951900641297,0.6914231811808087,0.6942259361313162,0.7050137707117528,0.7049605315844127,0.7159224842467302,0.7171227654532395,0.7242165948905236,0.7233964474718795,0.72805850339833,0.7347049900927192,0.7379165108384647,0.741362095376544,0.7417928964531804,0.7447838107412039,0.7469535263213187,0.7451419766307039,0.7473198770223138,0.7513702844004231,0.7506143282449207,0.7528754491336889,0.7500819008539144,0.7530376354207107,0.7559331654497301,0.7503737918905374,0.7503914448121918,0.747952832860883,0.7457549402617714,0.7460387417663094,0.7428000263836483,0.7429270025127139,0.7377764651418607,0.7347966722678141,0.7322883908033316,0.7266929041026505,0.7230309846467895,0.7191330327797861,0.718600167150938,0.713085728366016,0.7046770348429853,0.7041041420964043,0.7025123792676541,0.6941502734348248,0.6919961605888392,0.6850796736888527,0.6849675380406024,0.6835390682714679,0.6800126872787546,0.6751382005171855,0.6673748344509702,0.6652134902381021,0.6644097512030815,0.6604570226599226,0.6540035725776542,0.648095982721213,0.6460784412433429,0.6420097413970984,0.6345678823300342,0.6392631434643606,0.6323545543184244,0.627311549279456,0.6299138697710227,0.6244765578709512,0.6253325045565206,0.6239240895249111,0.6171653943865103,0.6202417157275447,0.6161973419887111,0.6186388879633364,0.6098069979825927,0.61238306801804,0.6107647118137274,0.6083770133764754,0.6054578118576581,0.6057693264071071,0.6041713388586278,0.6046091896955601,0.6047882917338351,0.6044383886563468,0.60110590576572,0.6070346760277257,0.5999385260636295,0.6023626551082393,0.6075505429347574,0.6040979448384232,0.6025141217870271,0.6087476011163999,0.6017471841220554,0.6069531702486703,0.6089213539057077,0.6100795433148196,0.6091871611504992,0.6108005674693588,0.6084810897524636,0.6119099986264291,0.6094571277901617,0.6149242100666824,0.6186134586119605,0.6165871118210867,0.6186431493506214,0.6247703410447287,0.6219689727710421,0.6300705354417079,0.621846007908131,0.6261695669586463,0.6306408609667108,0.6295283946179129,0.6357621456407625,0.6329005993298376,0.6447028508385436,0.641457303716018,0.6460108227299073,0.6492806798464843,0.6465050532681949,0.6490901488175542,0.6504012338709108,0.6588637864718412,0.6558748941224829,0.6581581034537102,0.6649224663100474,0.6630473404082593,0.6550204063320652,0.6693612150999527,0.6661628519775317,0.667258347944993,0.6664404981201754,0.6698988823077229,0.6707307181145689,0.668976131382209,0.6720434722903228,0.6711960040329805,0.674348754564491,0.6723855081111619,0.6743431235395045,0.670690483999882,0.6727597912473686,0.6672738589384757,0.6701442544909811,0.6678578194214284,0.6736090354406505,0.6685264648088554,0.661589646344878,0.6630134177345155,0.661406301248356,0.656893156457947,0.6567984266194609,0.6554135394447821,0.6506253295347555,0.648590947720841,0.6421682820011252,0.6379593131306709,0.6345963480529472,0.6381516979337899,0.6309905615839702,0.628286681336616,0.62531471073186,0.6208518775867471,0.6153109064309186,0.6115616419549972,0.6065304349894949,0.6049128192517743,0.6027103816174127,0.6020572365250169,0.5916772691970191,0.5869611100045762,0.584126328251217,0.5806691968966307,0.5798905217627156,0.5740863872207318,0.568656513294763,0.5641267687320823,0.5623006052821836,0.559325501481953,0.5563988971525179,0.5558658081311104,0.5485590387066571,0.5491006550994645,0.5429036857866815,26.494371709192077
train,sample_0027,0.5202669366328911,0.5205291850247394,0.524547402247619,0.5219758278525561,0.5216112580448516,0.5248159032458011,0.5266608987182437,0.5303120154516643,0.5328935914996609,0.5340546633459309,0.5308649540734321,0.5396087794919073,0.5392824879821176,0.5423558136399695,0.5440532690341746,0.5477666043850797,0.5474546782637771,0.5544266874521177,0.551208871670892,0.5555204492443295,0.5589824530675696,0.5601497612672929,0.5696807015323933,0.56854492891287,0.5703385916957702,0.5673060444691014,0.5740320138694864,0.5769964708905748,0.5783793125538784,0.5793296085042674,0.5855102017338157,0.5867532477755638,0.590130455244428,0.5958503830541724,0.5967496673894498,0.598999986492824,0.6057159754723768,0.6086586487230545,0.6116318106097829,0.6160811434362903,0.6139411191408015,0.6211505002102047,0.6234096767495685,0.6283205886970278,0.6259399460312205,0.6375435741872627,0.6348094679941099,0.6466935948898558,0.6447002432352605,0.651682076529873,0.6550958184791459,0.649150216093435,0.661362399249005,0.6638355356194406,0.665203809562423,0.6679214958379935,0.6789445701513784,0.6741156220262189,0.681995640498886,0.6804435688358302,0.6899988106478381,0.6944151995531134,0.6937295273163651,0.7020170314651635,0.6980924309421961,0.7047767796148818,0.7113710523431671,0.7129193219937205,0.7169329613805824,0.7196623773903136,0.7216526113187262,0.7314602024423129,0.7278359435601243,0.7312108030185956,0.7347727403171973,0.7370169139456282,0.7430212327849404,0.7422660962865781,0.7434889613002776,0.7481640894815456,0.7457797714673902,0.7533453797043244,0.7520385002734526,0.7550823523770229,0.757440318352812,0.7582622515855868,0.7612162496234075,0.7582494148777534,0.7640753344688691,0.7614840387182404,0.7651891865438529,0.7684620291973685,0.7727658171214811,0.770028426808355,0.7726749580370122,0.7688309975937819,0.7672493719250396,0.773721195197058,0.7708277611993554,0.7718259411255963,0.7721018810546865,0.7696110563039682,0.7734290922757994,0.7703404999303021,0.7674518988368346,0.7716678241764048,0.7721697371813323,0.7623924533678299,0.7686136843143168,0.7667978858752716,0.7645784397400401,0.7646817959657299,0.7646255480339681,0.7643514684905321,0.759186652762486,0.7622550206829468,0.7600501398378956,0.7549943154271124,0.755845130371521,0.7549375273900769,0.7451545475594555,0.7441445849214268,0.7411542192966911,0.7389356682757438,0.735524524084135,0.7387843874566657,0.7341958499459753,0.7341346157180533,0.7276728086111746,0.7244782674316748,0.722695465462234,0.7160118804880286,0.7128963088226026,0.7092191168933748,0.7055533873048684,0.701501628649472,0.6998158940013178,0.6957390495224831,0.6893228592659802,0.685278832086815,0.680955169421823,0.6776891275104627,0.6758618354909351,0.6687258647480094,0.6615318220167952,0.6626841959297908,0.6537784694606198,0.6533553792679369,0.6508409669762232,0.6438129316485569,0.644456275332875,0.6372502896056489,0.635573347676301,0.6265763558471327,0.6237303420388702,0.6208390277661875,0.612616803183541,0.6132900069354836,0.6132288573068532,0.6078771325522024,0.604055359180287,0.6015311517669109,0.5952557324499232,0.595037088215148,0.5901901041295919,0.587606614377636,0.585153264387222,0.5827020351977705,0.5756186313396279,0.5767371618425423,0.5657160679779811,0.5694909887415399,0.5644506106096905,0.5604560431705308,0.5590019422618938,0.5535642810355137,0.554077463251882,0.5481372624770878,0.5467610946105613,0.5462656382972557,0.5418110189902289,0.5369011055604647,0.5367534273061839,0.5365646376336516,0.5331017099857707,0.5327682233591077,0.5286064898968238,0.526616684388012,0.5263730239189047,0.5199247030661124,0.5246597733688634,0.5164461897593934,0.5147555273891069,0.5119908266326436,0.5133324822995439,0.5105025660047717,0.51081089220657,0.5081257605466736,0.5045636922431,0.5097149659822753,17.040863910005033
train,sample_0028,0.5697168645943418,0.5770867871750636,0.5788818406263562,0.5840294223914195,0.5930385808333927,0.5929059420435411,0.6023850696280381,0.6058699911072567,0.6109701925241983,0.6201859282772935,0.6268908219085881,0.6310500688367768,0.6434129211201707,0.6433849421507681,0.6507111954612002,0.6515410858350006,0.6625406504980302,0.6691273000827738,0.6696775500743254,0.680574502294898,0.6875668745313863,0.6949297814698981,0.6996745785031206,0.7051896904656165,0.7123390775971479,0.7188335833925266,0.7256532453202007,0.7297410371403852,0.7327790842942958,0.7394973287426849,0.7414181081323478,0.7478719688913907,0.7589007878591492,0.7614782694171912,0.7638783121647618,0.7685535986301759,0.7698206133660699,0.7694323776250689,0.7756780019126546,0.7785341315543787,0.7787565666923276,0.7821101616543382,0.7814263093988698,0.7825177992493841,0.7840202907228992,0.7834914809572635,0.7866878800378192,0.78917547767827,0.7841516897770093,0.7885564540728449,0.7840386954596169,0.7814224324568618,0.7832673108554653,0.7792209528408436,0.7762336602146052,0.7740599431596201,0.7691626749813109,0.7688966378135211,0.7635373422977856,0.7636981817872701,0.7649649963327285,0.7572500757030889,0.7563250954651091,0.7523545793949672,0.7462071470877074,0.7457018615916854,0.7431027933293861,0.7380143643764695,0.7335290791393467,0.7287837151793615,0.7264980110603483,0.7246182732663984,0.716857376195667,0.7140562503841472,0.7091552302308585,0.7056018707617899,0.7009465110884636,0.7023703148639152,0.6952435094256525,0.6897677820460333,0.6874201818333036,0.6865502063254952,0.6777427828089371,0.675999556104858,0.6749290734313375,0.6722920302254589,0.6691108023754437,0.6680321644104137,0.6615308818785364,0.656462351693627,0.6556550179301679,0.6532384776725795,0.6485266800320382,0.6492976105922356,0.6445253938873707,0.6426090947960315,0.6417943092458803,0.6317287175013204,0.637401188299142,0.6326312006688124,0.6243968759881923,0.6201326033305862,0.6211743843197882,0.6214778905139338,0.6219239007581463,0.6145460057985143,0.6168827725986138,0.6130748323035442,0.6163472297711938,0.6103182247828155,0.6083779731367022,0.608566237080277,0.6028922037172751,0.609626397583309,0.6078405704399797,0.6005094948223317,0.6040587728485348,0.5994061559098378,0.60126708032231,0.6001528231201594,0.6008718443888267,0.5982142821916685,0.5979859232384216,0.600289324430633,0.6015010962753188,0.5956355644461561,0.6045621633282132,0.6010681118630091,0.6017248087781596,0.601076291114432,0.6006295397697007,0.6035869822476007,0.6051282779393663,0.5991753824247195,0.6023580308358528,0.6045863952042974,0.6057791836208737,0.6067239614714267,0.601600544854627,0.6073512557586116,0.6019432923744186,0.6034233967307101,0.6068306802259509,0.6043633043970288,0.6039723682258383,0.6054147168891099,0.6032803277550653,0.6082931288468573,0.6148025830869353,0.6057167873770221,0.607360128521106,0.6109384290397909,0.612001603417667,0.610184732214153,0.6063275794509349,0.6054907870246108,0.5998126833883727,0.6060647038325335,0.604890930582764,0.6034821867443458,0.6040363584785372,0.6033960954275988,0.596920737872912,0.5984604532560024,0.5967343300892064,0.5973601541833898,0.5942696232232862,0.5927184038753359,0.5865188225378363,0.5837674228657744,0.5867473709850234,0.5876248069430627,0.5796817306228969,0.5806322405837208,0.5772159565564049,0.5786096326500644,0.5740638486620427,0.572836807892689,0.5693263651322275,0.5673783126530543,0.5608820485637683,0.5627288809115601,0.5585262501055194,0.5521452781887912,0.5539682177020495,0.5517750487354085,0.5491155431047029,0.5499148765906962,0.5439485778649122,0.5407969405610095,0.5371335972848876,0.5430036800950399,0.5292282840657802,0.5358155115177832,0.5313964556538933,0.5268935240708187,0.5251497450532278,0.526823029512675,0.5242497956212986,0.5184407922104326,29.942396590720715
train,sample_0029,0.5012682844250631,0.49978859506826145,0.5004972438018515,0.5008564291377667,0.49744579917121934,0.5075902113408517,0.4988829366670044,0.5032062424995056,0.4992076439919971,0.5018376794788032,0.5021675513642894,0.501156778084712,0.504094351597123,0.5037852898340281,0.49859474478284255,0.5050411500381804,0.5011845710390574,0.5058940421739883,0.5009804285360566,0.5061259868657132,0.5036378524519718,0.5059396466698046,0.5051766417128787,0.5046882795914792,0.5088012434077733,0.5132671403028742,0.5072211770444376,0.5118917568955681,0.5094983318463736,0.5082773519322833,0.5112829339982837,0.5111396105361551,0.5119645850589305,0.5137227825947841,0.5165351760288794,0.5150592257889839,0.5177873846462087,0.5211967681630526,0.517062838306948,0.5223905031404907,0.5192452499929949,0.5249743093468834,0.5242743679530932,0.5214106948573753,0.5257360709913249,0.5280876848035723,0.5305229579280875,0.5311419270991995,0.532900602069502,0.5369141772107933,0.5394722748262791,0.5381015377244343,0.5396485271869634,0.539220498513945,0.5462607070689078,0.5418098149779035,0.547127386600463,0.5502229435729113,0.5450230480536485,0.5583163876235285,0.5547692517576195,0.5569372886654503,0.5605301979801872,0.5621762059699054,0.5661806544841166,0.572108218082741,0.566912440471898,0.5716153317415601,0.5803245730815197,0.5813997486024061,0.5865364972274402,0.5891389562469967,0.5924934770914771,0.5960008160142612,0.5980947180628486,0.5973747144669735,0.6050720852548389,0.6077867734146943,0.6111002946877857,0.6154397085708316,0.6186996583965296,0.6232448797379746,0.6263971369549884,0.6285797339694361,0.6371622305378086,0.6422271364828054,0.6434033393302234,0.6433719076902445,0.653646852078569,0.6535819761573963,0.6569497062734194,0.6652267755363148,0.6742448111003742,0.6770083470373023,0.68020028111322,0.6825633327111478,0.6914999301672387,0.6933238787583904,0.6964719535675006,0.7012685934230714,0.7057869184165231,0.7143475123944089,0.716685724198324,0.7229337132849161,0.7277046081186354,0.7326966774463748,0.7357770520974327,0.7401542498188975,0.7453002219476091,0.7487101539159686,0.7504316357501084,0.7551011624642929,0.7617272120973387,0.7659101414156126,0.7742445876921933,0.7729873186756568,0.7791329364214484,0.7826856950973813,0.7838912983879367,0.78688332845313,0.7862447836439836,0.7893148200776772,0.7960155557539482,0.7951034821667973,0.8026063726347729,0.8019621782656893,0.806758547752837,0.8059819686613914,0.8123282408156762,0.8104740981500977,0.8131551216674515,0.8154870712747195,0.8139536994823479,0.8189184840378568,0.8188356704064843,0.8209729281858368,0.8211057787786622,0.820673014676097,0.8266940803714808,0.8269593976350946,0.8246235956620025,0.8233013592344454,0.8282258039734381,0.8253766146625596,0.824333785222274,0.8245597545542958,0.8211045973722191,0.8244076641576366,0.8199098074131361,0.8211210629526475,0.8220137150336795,0.8131544098794764,0.8140106737709536,0.8147081386343048,0.8099289358403795,0.8061602117133991,0.8007228533974258,0.8008304965065489,0.7964183063932696,0.7956522068678193,0.7912256798036947,0.7826722442305822,0.7834573187835873,0.7820642429295852,0.7735775971495252,0.7696362107654204,0.7651184697670165,0.7539977390643577,0.752807948372175,0.7472644387115912,0.7399342917738945,0.7341240521003043,0.7257196339347278,0.7216612946429577,0.7136419907488589,0.7124125601987519,0.7053952408085962,0.700827561952202,0.686383009620234,0.6833873366039087,0.6789215434671613,0.6690450592647098,0.663225120500159,0.6608362473869538,0.6476225207581726,0.6450054249707654,0.6382637811414564,0.6328444189930866,0.6248559087368954,0.6229712394534171,0.6136716911864201,0.6085243047665321,0.60754041677056,0.5962391983570511,0.5948765975087338,0.5866359710309644,0.5827187652294262,0.5791945919330308,0.5736765852774727,0.5684251036667686,5.0
test,sample_0030,0.5184832771612012,0.5161014399655938,0.5129327580960358,0.5169481836258846,0.5185101059739119,0.5200955024824446,0.5245266543762264,0.5264165483815613,0.5192388456236958,0.5298589110534248,0.5297448789846615,0.5326679049763186,0.5353909678793192,0.5325501886491157,0.5390903089478669,0.5384919095270332,0.5445348659677784,0.5459756856612791,0.5504349960287709,0.5527700778700664,0.5537613704876775,0.5577731827616955,0.5565828629191671,0.5588990972759263,0.5711847006871619,0.5664565478233002,0.567746229132765,0.5812300129313818,0.5798973492484428,0.5822377298173833,0.5842837630667949,0.5857916964448112,0.5961633283255,0.5962789609706415,0.6043324750300387,0.6109224432188003,0.6170929461847572,0.6214733239124731,0.6245616291377492,0.6340067972135237,0.6329648697899245,0.6424749850939202,0.6453857858086008,0.6511425360022587,0.6585092426378739,0.6664086399412068,0.6733346270178516,0.6774647803825771,0.6847587437712747,0.6906837349205068,0.6981756256242793,0.7010409310378759,0.7107379231059074,0.7155831110549058,0.7188847462526506,0.7301532035706748,0.7361856714705828,0.7439274940399928,0.7466570095860268,0.7580762767504186,0.7608266199659124,0.7733315873075819,0.7808688168993645,0.783877648683933,0.7902011327047977,0.7900208613367807,0.8029207141634609,0.804723232306894,0.810222983292904,0.8125220361320915,0.820379885596762,0.8211677098513456,0.8258705259436457,0.8347370788322639,0.8360519084717744,0.8347195013217286,0.8363437712709012,0.8373454457569038,0.839157440968979,0.8425721854883945,0.8400372302261643,0.8376930054485079,0.8395294653067309,0.8395371461034504,0.8345708340660503,0.8341421194551114,0.8289761034837608,0.8314685634720966,0.8262843881700681,0.8250221914600524,0.8212752316336858,0.818532039966579,0.8133675937472069,0.807432961683471,0.8015731365108854,0.8020908859390543,0.7934263906865926,0.7896963814052249,0.7791906949571432,0.7777561115761837,0.7691492823384734,0.7674551704036148,0.7560552142232639,0.7567769270696966,0.7481417626504775,0.7404118769914495,0.7336760358348607,0.7281992691725996,0.7250807056315584,0.7189935592723464,0.7118147364592878,0.7072401512347397,0.7040742161316448,0.6954676790376532,0.6913897158240647,0.6875207971881012,0.6858282772110382,0.6802359100509248,0.6697723156544122,0.6686142149492399,0.6589325727120053,0.6637913085231939,0.6591694721586754,0.6532033863222724,0.6522197143335926,0.6482783988682256,0.6420353616640029,0.6418005759169205,0.640001166857433,0.6369730821542756,0.6360674375390012,0.633676488084361,0.6293929681906638,0.6310574779639744,0.6259965068160787,0.6257930527485216,0.6201551219994691,0.6235162146778064,0.6216649097649105,0.6198139702332163,0.6199622723312941,0.6160029037531671,0.6201419716297726,0.6131379929443326,0.6175388825554318,0.612589169868077,0.6111509284152138,0.6099677896624434,0.6140550309117281,0.6124202839374202,0.6110488175878812,0.6137054044090622,0.6109920704188998,0.6104747662383008,0.6074322054223809,0.6056360112470646,0.6076935477189146,0.6039779312257932,0.60322568411773,0.5996805040155115,0.5993422243088984,0.6004429357939275,0.5982845349546432,0.5965228279066553,0.5946195870207616,0.596946915064041,0.5907289330000954,0.5868290067764036,0.588321005483381,0.5842826010004847,0.5882864898463478,0.5797753276478043,0.5771097572946788,0.5774169597249774,0.574995525724324,0.5715398508030114,0.5760244224702892,0.567544344517199,0.5679945817797861,0.560693934682189,0.5567492943630897,0.5549801177708465,0.5585534357149101,0.5563709989116833,0.5477590747659573,0.5468427973290728,0.5482106171610595,0.5488949869374814,0.5442655347659019,0.539519962772933,0.5365920256008008,0.5370227398519117,0.5339140863536047,0.5338759678257344,0.5330645381362998,0.5285199018952093,0.5257072226929728,0.5256521584104622,0.5233395398307268,0.5197796851391822,25.86830616331233
