1100;1105;1110;1115;1120;1125;1130;1135;1140;1145;1150;1155;1160;1165;1170;1175;1180;1185;1190;1195;1200;1205;1210;1215;1220;1225;1230;1235;1240;1245;1250;1255;1260;1265;1270;1275;1280;1285;1290;1295;1301;1306;1311;1316;1321;1326;1331;1336;1341;1346;1351;1356;1361;1366;1371;1376;1381;1386;1391;1396;1401;1406;1411;1416;1421;1426;1431;1436;1441;1446;1451;1456;1461;1466;1471;1476;1481;1486;1491;1496;1502;1507;1512;1517;1522;1527;1532;1537;1542;1547;1552;1557;1562;1567;1572;1577;1582;1587;1592;1597;1602;1607;1612;1617;1622;1627;1632;1637;1642;1647;1652;1657;1662;1667;1672;1677;1682;1687;1692;1697;1703;1708;1713;1718;1723;1728;1733;1738;1743;1748;1753;1758;1763;1768;1773;1778;1783;1788;1793;1798;1803;1808;1813;1818;1823;1828;1833;1838;1843;1848;1853;1858;1863;1868;1873;1878;1883;1888;1893;1898;1904;1909;1914;1919;1924;1929;1934;1939;1944;1949;1954;1959;1964;1969;1974;1979;1984;1989;1994;1999;2004;2009;2014;2019;2024;2029;2034;2039;2044;2049;2054;2059;2064;2069;2074;2079;2084;2089;2094;2100
0.555921;0.559260;0.557483;0.565550;0.566386;0.573676;0.578486;0.577969;0.580934;0.589500;0.596561;0.605804;0.607978;0.612720;0.612567;0.618401;0.624141;0.634405;0.637873;0.643583;0.649881;0.653913;0.658665;0.661228;0.672618;0.676535;0.679252;0.684985;0.691055;0.697124;0.698757;0.707877;0.708429;0.713283;0.717108;0.723885;0.726667;0.731851;0.733031;0.741641;0.740395;0.742197;0.744993;0.750038;0.749715;0.756534;0.752913;0.758737;0.762075;0.765011;0.764616;0.767759;0.771414;0.769392;0.765474;0.774175;0.772274;0.770183;0.774734;0.767733;0.769751;0.773722;0.776885;0.775606;0.772162;0.768027;0.772283;0.767480;0.767062;0.768164;0.765606;0.770493;0.762947;0.765266;0.760315;0.761530;0.755361;0.750662;0.753512;0.751616;0.744965;0.743582;0.742012;0.738107;0.734880;0.726172;0.726363;0.723703;0.723446;0.720445;0.714458;0.714497;0.707942;0.703028;0.696019;0.694234;0.689500;0.685373;0.683866;0.684359;0.680673;0.676714;0.671610;0.668059;0.663629;0.658731;0.658894;0.654659;0.646989;0.641584;0.640565;0.641157;0.635223;0.633233;0.631692;0.629313;0.626325;0.625219;0.618256;0.617321;0.617261;0.611492;0.615629;0.608729;0.615491;0.606361;0.605610;0.603597;0.602434;0.603883;0.604146;0.607789;0.604391;0.601329;0.597443;0.602793;0.599326;0.601246;0.598004;0.602728;0.598811;0.604737;0.603036;0.600772;0.597222;0.602260;0.600021;0.591825;0.596076;0.597353;0.599262;0.597899;0.595054;0.591708;0.589950;0.600023;0.601532;0.593067;0.595168;0.592816;0.594047;0.586736;0.588163;0.592245;0.583453;0.581505;0.587310;0.581572;0.577497;0.580245;0.575698;0.576718;0.569749;0.570118;0.567577;0.564891;0.561902;0.559660;0.556463;0.554593;0.552961;0.555210;0.554418;0.546974;0.546496;0.546624;0.544762;0.539080;0.540582;0.533359;0.535039;0.525667;0.532634;0.530496;0.524170;0.527825;0.524742;0.519141;0.520125;0.520786
0.511860;0.513940;0.517939;0.516962;0.515922;0.514620;0.520864;0.517494;0.522223;0.525615;0.522593;0.524215;0.525993;0.528810;0.527662;0.533864;0.529876;0.532300;0.539021;0.537781;0.540315;0.540417;0.541847;0.546599;0.542363;0.548007;0.553290;0.555173;0.554861;0.556099;0.558633;0.557823;0.564092;0.564019;0.570921;0.572441;0.576670;0.576367;0.580222;0.579074;0.582683;0.586935;0.590715;0.592903;0.600099;0.600785;0.605078;0.610192;0.610989;0.613862;0.621763;0.618651;0.623262;0.625680;0.631368;0.635927;0.638633;0.640578;0.649583;0.647717;0.652157;0.658583;0.660363;0.663109;0.664127;0.668982;0.674533;0.675811;0.681670;0.681140;0.684111;0.688149;0.690093;0.690950;0.696910;0.700201;0.701670;0.704185;0.700259;0.703769;0.704648;0.707546;0.710827;0.710115;0.709765;0.710155;0.712392;0.711942;0.718166;0.717304;0.714239;0.715024;0.718134;0.718259;0.717262;0.716353;0.713243;0.719570;0.715097;0.711452;0.714001;0.712254;0.714543;0.712511;0.715256;0.710773;0.716082;0.712231;0.714361;0.718803;0.710693;0.712147;0.712653;0.715455;0.711981;0.709234;0.711729;0.710136;0.718181;0.718070;0.714606;0.716768;0.718252;0.716576;0.717071;0.718039;0.717215;0.721416;0.721946;0.721538;0.716329;0.719920;0.718402;0.722957;0.724330;0.725490;0.726944;0.725955;0.729315;0.721120;0.728178;0.728086;0.730628;0.728578;0.732611;0.731300;0.730151;0.726683;0.725718;0.730630;0.726128;0.726689;0.725411;0.723914;0.724308;0.720987;0.717696;0.722868;0.721012;0.719860;0.708502;0.709574;0.706824;0.708943;0.698476;0.703192;0.695988;0.689501;0.691946;0.679630;0.681644;0.678659;0.668690;0.667742;0.660878;0.657307;0.654675;0.643772;0.645890;0.636091;0.632167;0.621991;0.624885;0.615691;0.614096;0.604193;0.607937;0.601373;0.599015;0.592778;0.583884;0.581558;0.578737;0.578560;0.568424;0.566267;0.563212;0.556154;0.548860;0.551841
0.514759;0.514481;0.517272;0.518585;0.518358;0.521588;0.519413;0.518332;0.523652;0.521621;0.529227;0.530350;0.524190;0.532839;0.530478;0.536821;0.533484;0.537156;0.538053;0.544801;0.539443;0.542461;0.551315;0.541362;0.548267;0.549880;0.549168;0.556869;0.555347;0.557743;0.556477;0.556768;0.558675;0.563204;0.556969;0.563712;0.564634;0.568344;0.568322;0.570539;0.572871;0.573789;0.569440;0.572383;0.572752;0.573251;0.573937;0.574593;0.577480;0.574722;0.575662;0.576288;0.575493;0.578308;0.580831;0.580703;0.584601;0.582588;0.579512;0.584510;0.586348;0.582583;0.585622;0.582166;0.583911;0.590166;0.585812;0.588696;0.587106;0.586895;0.591518;0.586463;0.595244;0.595070;0.593366;0.591527;0.594110;0.595445;0.596645;0.602021;0.598445;0.601635;0.598222;0.600584;0.603568;0.603536;0.602603;0.607159;0.604060;0.608737;0.609643;0.612757;0.616543;0.615168;0.617436;0.617532;0.620789;0.619115;0.625325;0.628835;0.627965;0.627536;0.630454;0.635558;0.641583;0.636897;0.644962;0.646937;0.649749;0.649755;0.647020;0.658846;0.658885;0.664916;0.667225;0.671463;0.677148;0.681664;0.689152;0.691491;0.693823;0.699457;0.702017;0.706542;0.712664;0.716765;0.721588;0.733834;0.732380;0.739056;0.743857;0.750204;0.751871;0.760062;0.763963;0.771319;0.773732;0.778852;0.783062;0.793702;0.792069;0.797568;0.800452;0.813897;0.809643;0.815587;0.817254;0.820874;0.829314;0.825107;0.828951;0.829987;0.835213;0.833781;0.832607;0.832075;0.829572;0.826910;0.829105;0.831499;0.830319;0.825516;0.824452;0.821784;0.817411;0.816046;0.814227;0.802208;0.804025;0.791350;0.791315;0.780941;0.781170;0.773749;0.765548;0.755337;0.752732;0.743079;0.738139;0.728087;0.716454;0.712951;0.707299;0.698857;0.687263;0.684037;0.673424;0.667488;0.659571;0.651472;0.646328;0.639030;0.630528;0.625107;0.622524;0.606837;0.608594;0.598051;0.596945;0.589434
0.527556;0.530203;0.525048;0.531149;0.532723;0.526481;0.534946;0.536559;0.544346;0.546803;0.543764;0.546918;0.551631;0.546899;0.555529;0.552487;0.553988;0.557334;0.555207;0.565247;0.566087;0.570656;0.566197;0.574452;0.572731;0.577102;0.578610;0.582238;0.578728;0.580074;0.581432;0.588985;0.591359;0.586315;0.591423;0.594036;0.592662;0.590154;0.599610;0.597527;0.594465;0.596828;0.596321;0.598212;0.597858;0.593910;0.596266;0.593026;0.595069;0.593738;0.596758;0.595393;0.597699;0.591728;0.595672;0.588007;0.591689;0.587165;0.588908;0.586670;0.587285;0.589931;0.580551;0.583353;0.584961;0.581247;0.579064;0.577650;0.581391;0.575589;0.575357;0.577006;0.574520;0.574427;0.568058;0.570189;0.570616;0.569439;0.566492;0.566965;0.568532;0.567876;0.563821;0.561017;0.564323;0.565340;0.563262;0.559805;0.568173;0.562602;0.563271;0.563029;0.559954;0.560732;0.564351;0.567455;0.563585;0.564963;0.564685;0.566928;0.571973;0.570935;0.567244;0.573439;0.580324;0.578924;0.580348;0.585215;0.584792;0.594171;0.595144;0.592600;0.602753;0.602041;0.608432;0.616178;0.620362;0.624149;0.625517;0.631880;0.636364;0.645102;0.651312;0.656179;0.662654;0.665293;0.673790;0.681785;0.692673;0.692893;0.700159;0.709129;0.719040;0.730836;0.731965;0.740714;0.742509;0.751197;0.761824;0.765567;0.774508;0.782601;0.784351;0.793667;0.799766;0.803959;0.810293;0.812868;0.822964;0.823026;0.826814;0.833893;0.834030;0.837100;0.842466;0.839978;0.843767;0.843669;0.846188;0.843763;0.847066;0.837380;0.842533;0.838992;0.832796;0.834125;0.822629;0.819771;0.823971;0.815613;0.808753;0.799410;0.796006;0.785591;0.778661;0.772079;0.763235;0.761772;0.746020;0.738167;0.732502;0.730133;0.718178;0.708732;0.699975;0.689139;0.682978;0.679687;0.666817;0.656567;0.647810;0.645313;0.635298;0.624186;0.622615;0.612912;0.605922;0.596588;0.591180;0.584268
0.546485;0.553075;0.555690;0.559107;0.558222;0.561328;0.568612;0.572915;0.574376;0.586208;0.587783;0.589779;0.592850;0.597783;0.599989;0.608592;0.612024;0.619361;0.625624;0.625817;0.636522;0.638775;0.642592;0.643094;0.652317;0.659786;0.661639;0.668503;0.672967;0.679484;0.682777;0.683914;0.688233;0.698925;0.701769;0.706211;0.711082;0.706834;0.714856;0.716282;0.721385;0.721264;0.729443;0.733315;0.729143;0.737111;0.738499;0.741282;0.743650;0.745983;0.747254;0.754304;0.752210;0.756573;0.753426;0.757043;0.761986;0.761218;0.759206;0.762908;0.757568;0.759388;0.762979;0.763374;0.763182;0.758236;0.761190;0.760730;0.759439;0.759746;0.761114;0.757758;0.757001;0.759991;0.756266;0.753608;0.747280;0.746965;0.747192;0.737480;0.742851;0.737490;0.731091;0.736431;0.729617;0.723914;0.716412;0.717630;0.711558;0.709224;0.703757;0.700544;0.696551;0.692567;0.689567;0.686221;0.680604;0.673756;0.668576;0.661044;0.665773;0.659150;0.649979;0.646501;0.643697;0.638845;0.632223;0.632162;0.625609;0.622854;0.619072;0.616029;0.611700;0.610421;0.608574;0.603080;0.608839;0.602908;0.596921;0.601040;0.596796;0.593186;0.595533;0.591177;0.593514;0.593753;0.592820;0.595213;0.592083;0.597236;0.592762;0.589538;0.593963;0.595419;0.599259;0.602722;0.602090;0.601677;0.607895;0.604632;0.608575;0.611934;0.612679;0.609959;0.616978;0.612819;0.618572;0.620340;0.616013;0.625459;0.620937;0.625057;0.621503;0.627024;0.625079;0.627139;0.628221;0.626428;0.618080;0.624991;0.625983;0.624679;0.624018;0.626512;0.619590;0.618073;0.615071;0.617794;0.613657;0.611984;0.613898;0.608778;0.605661;0.600419;0.601465;0.599491;0.599594;0.592591;0.586376;0.586367;0.583894;0.583915;0.578831;0.574788;0.569368;0.567669;0.567367;0.557804;0.558956;0.555914;0.556287;0.549105;0.544892;0.546047;0.546229;0.539077;0.536224;0.537925;0.530587;0.527902
0.578447;0.585328;0.588337;0.597824;0.605058;0.612586;0.620998;0.622480;0.630488;0.637052;0.638948;0.651565;0.656776;0.662260;0.671050;0.681846;0.685606;0.694883;0.701991;0.706585;0.715884;0.721219;0.735557;0.741301;0.741308;0.747975;0.753237;0.768975;0.770333;0.778541;0.778527;0.788693;0.790505;0.797093;0.802442;0.802897;0.811059;0.808307;0.810540;0.810596;0.821279;0.814205;0.819099;0.815529;0.821561;0.817773;0.817536;0.818751;0.814851;0.815712;0.810926;0.813846;0.803735;0.809160;0.800898;0.798976;0.796046;0.799314;0.787876;0.784035;0.782243;0.779390;0.769711;0.766130;0.766301;0.758433;0.747214;0.748646;0.743842;0.735501;0.728061;0.722561;0.718044;0.715159;0.707687;0.704596;0.698260;0.695976;0.689188;0.686389;0.679824;0.678013;0.672467;0.671405;0.662091;0.658240;0.658078;0.651518;0.651238;0.645496;0.639512;0.640237;0.636082;0.634755;0.625540;0.620896;0.619162;0.616696;0.613947;0.610701;0.607109;0.603817;0.602708;0.606239;0.597196;0.599056;0.595017;0.590085;0.589427;0.580222;0.586164;0.588727;0.583042;0.581878;0.583091;0.583459;0.581565;0.579648;0.577210;0.579586;0.575633;0.578091;0.577717;0.582868;0.581595;0.578140;0.581921;0.580612;0.580674;0.580893;0.580641;0.582440;0.583981;0.587425;0.581404;0.587258;0.588870;0.588872;0.587758;0.586782;0.594377;0.589953;0.589950;0.592734;0.591281;0.598872;0.596453;0.596751;0.600132;0.596963;0.602838;0.603490;0.599972;0.601677;0.599421;0.597594;0.600310;0.599459;0.597448;0.599107;0.601345;0.598205;0.597732;0.594238;0.598295;0.597932;0.593335;0.595661;0.589193;0.589159;0.585145;0.587123;0.583606;0.581947;0.577941;0.574013;0.573393;0.570530;0.567034;0.566701;0.574739;0.558750;0.561037;0.562007;0.559227;0.552982;0.555263;0.551085;0.553787;0.546808;0.541276;0.539597;0.541646;0.537902;0.533440;0.535074;0.534232;0.526678;0.530862;0.522841
0.537264;0.546858;0.546394;0.545970;0.549697;0.550575;0.551884;0.563804;0.560501;0.564099;0.567815;0.568751;0.575776;0.578123;0.584150;0.589999;0.592935;0.590540;0.594463;0.600655;0.602787;0.604880;0.613742;0.616353;0.616902;0.619521;0.626856;0.624838;0.631143;0.635631;0.640427;0.635896;0.640330;0.644424;0.649069;0.650905;0.651472;0.651896;0.655369;0.654456;0.660533;0.659290;0.660685;0.661865;0.663782;0.665668;0.662701;0.662262;0.664568;0.663010;0.661977;0.666396;0.660531;0.662301;0.667125;0.658065;0.657150;0.659881;0.660454;0.661358;0.658039;0.657617;0.656123;0.662494;0.659658;0.653275;0.653881;0.652786;0.649411;0.652115;0.656287;0.653789;0.659978;0.652500;0.657225;0.656841;0.661877;0.654240;0.652080;0.658666;0.659485;0.656748;0.660304;0.660878;0.667161;0.665882;0.667997;0.673732;0.678769;0.674546;0.674681;0.679546;0.681445;0.683084;0.686691;0.688429;0.694212;0.694972;0.699422;0.699716;0.705395;0.705041;0.709661;0.709756;0.717182;0.714354;0.715020;0.727497;0.719584;0.726700;0.731399;0.729487;0.734903;0.732696;0.732209;0.737278;0.739084;0.742729;0.740475;0.748666;0.739028;0.744087;0.742612;0.739678;0.738315;0.740934;0.739127;0.742014;0.742707;0.741627;0.739137;0.740196;0.732324;0.740011;0.732613;0.730151;0.727118;0.725552;0.717727;0.721028;0.721119;0.714592;0.715674;0.714150;0.706590;0.705997;0.697916;0.706016;0.693513;0.693590;0.686430;0.689375;0.683199;0.679470;0.672802;0.671034;0.666174;0.664935;0.658487;0.661713;0.659349;0.653959;0.647504;0.644269;0.642913;0.638095;0.634408;0.628488;0.628647;0.623120;0.619711;0.617984;0.614986;0.613672;0.604014;0.604156;0.595422;0.594477;0.587849;0.584173;0.586017;0.581923;0.576800;0.575582;0.571633;0.566712;0.568461;0.564366;0.558502;0.557160;0.555103;0.554825;0.551653;0.545291;0.539690;0.543579;0.542406;0.537044;0.536867;0.532405
0.501437;0.505541;0.507031;0.505023;0.503617;0.506586;0.507802;0.507439;0.508188;0.512272;0.507772;0.508193;0.509253;0.513213;0.512333;0.511979;0.513183;0.511425;0.514099;0.513019;0.515458;0.515989;0.514318;0.519168;0.519374;0.511637;0.519582;0.520752;0.517943;0.515924;0.518385;0.519530;0.516200;0.519027;0.517184;0.523948;0.522392;0.520605;0.525642;0.522978;0.518009;0.518966;0.521410;0.520874;0.524154;0.526167;0.521868;0.524946;0.526524;0.523616;0.524951;0.525668;0.529149;0.532453;0.530096;0.530162;0.533129;0.531592;0.536361;0.530788;0.532524;0.534895;0.535589;0.541354;0.540864;0.539214;0.542352;0.539460;0.548423;0.548318;0.558792;0.551453;0.556946;0.561888;0.565695;0.559441;0.570958;0.569550;0.568931;0.575537;0.583986;0.585943;0.587736;0.599571;0.597104;0.604921;0.609705;0.612133;0.620830;0.619577;0.629467;0.630877;0.641134;0.647521;0.652764;0.655738;0.667071;0.671080;0.676570;0.683590;0.694199;0.696319;0.700614;0.705953;0.712496;0.712982;0.722511;0.730356;0.736529;0.743231;0.749597;0.750132;0.759179;0.766432;0.768448;0.775147;0.774950;0.786447;0.785075;0.788942;0.796576;0.796586;0.803692;0.804980;0.809290;0.810984;0.817720;0.813738;0.822014;0.826768;0.820658;0.826582;0.831173;0.833067;0.828783;0.829065;0.834431;0.833705;0.833577;0.829312;0.835409;0.833569;0.829753;0.829596;0.831437;0.831137;0.828163;0.830248;0.827147;0.826349;0.824337;0.826170;0.817939;0.818425;0.813599;0.808065;0.808810;0.803079;0.803840;0.801604;0.791382;0.787464;0.784625;0.777068;0.773727;0.762812;0.761459;0.760681;0.751509;0.743004;0.743031;0.728551;0.729609;0.724289;0.716550;0.704379;0.699185;0.692565;0.686788;0.677364;0.675449;0.671595;0.659212;0.657477;0.645268;0.635980;0.630869;0.622760;0.618434;0.614163;0.608424;0.603526;0.597763;0.589510;0.586890;0.577843;0.579174;0.569378;0.566436;0.561083
0.537096;0.534992;0.538418;0.540447;0.547548;0.549281;0.550349;0.555259;0.563234;0.560227;0.565773;0.565763;0.570019;0.579443;0.578770;0.580160;0.586525;0.594375;0.598578;0.599634;0.603511;0.606133;0.614578;0.611170;0.619540;0.622743;0.628043;0.630607;0.634394;0.639470;0.644160;0.646904;0.652026;0.654454;0.660531;0.659160;0.663899;0.670377;0.670557;0.677608;0.683502;0.685970;0.687008;0.693035;0.697217;0.702308;0.697060;0.707098;0.706647;0.710010;0.711649;0.717438;0.718139;0.724133;0.726086;0.725309;0.727601;0.735082;0.733491;0.739175;0.739527;0.739932;0.741948;0.747318;0.748924;0.751287;0.756725;0.759655;0.757813;0.765874;0.762431;0.763925;0.759069;0.762808;0.768100;0.763000;0.770908;0.770112;0.768476;0.767888;0.771878;0.772613;0.772828;0.772658;0.773826;0.775559;0.775727;0.770155;0.772012;0.775343;0.772132;0.766464;0.770098;0.770128;0.774360;0.768334;0.769648;0.765715;0.767449;0.761065;0.763940;0.760100;0.759567;0.756239;0.757711;0.756902;0.755926;0.748820;0.753397;0.749043;0.749655;0.743177;0.743843;0.739968;0.735239;0.730144;0.729870;0.729418;0.726777;0.725214;0.717380;0.710758;0.710196;0.707948;0.709565;0.708074;0.697605;0.691587;0.697876;0.688754;0.680570;0.681321;0.675967;0.670218;0.664118;0.662977;0.655987;0.651391;0.650505;0.644700;0.644248;0.638209;0.635077;0.629323;0.622956;0.623867;0.610296;0.607315;0.610493;0.604642;0.596276;0.596504;0.596325;0.589877;0.581968;0.576490;0.581271;0.576926;0.573914;0.570100;0.569551;0.559151;0.562272;0.558531;0.556526;0.553594;0.553563;0.547301;0.546674;0.544840;0.538487;0.539112;0.533667;0.533014;0.534173;0.534329;0.528660;0.532272;0.527836;0.524863;0.524178;0.525821;0.523261;0.523156;0.521673;0.515754;0.515038;0.518743;0.514260;0.511885;0.511368;0.514787;0.514237;0.510257;0.512253;0.507778;0.510583;0.511360;0.509023;0.508648
0.576453;0.578174;0.578113;0.584829;0.594991;0.598271;0.603470;0.605918;0.617230;0.626373;0.624946;0.631686;0.641499;0.650343;0.649940;0.655360;0.664526;0.673236;0.674805;0.684493;0.694815;0.699264;0.706267;0.707167;0.715261;0.720810;0.724531;0.723402;0.737518;0.739307;0.741504;0.744265;0.753544;0.753737;0.759029;0.765620;0.764291;0.768238;0.766754;0.770507;0.770215;0.775164;0.769722;0.770436;0.766924;0.769484;0.766606;0.764837;0.761896;0.762717;0.762402;0.757499;0.751569;0.751998;0.741429;0.738712;0.736578;0.733155;0.728244;0.723566;0.717864;0.716698;0.711254;0.707939;0.695711;0.694237;0.692019;0.688212;0.682004;0.677601;0.671625;0.670307;0.662638;0.663770;0.660492;0.654588;0.647446;0.651814;0.649536;0.640547;0.640318;0.635630;0.637650;0.638815;0.631800;0.634212;0.630770;0.632906;0.630509;0.633834;0.633561;0.635304;0.630022;0.635107;0.630635;0.632771;0.634460;0.638380;0.636384;0.638470;0.638392;0.640452;0.644712;0.640925;0.648344;0.652943;0.653264;0.652777;0.653295;0.655348;0.652207;0.655375;0.652966;0.660106;0.657634;0.659490;0.661759;0.658234;0.661417;0.663138;0.666243;0.664478;0.670605;0.669784;0.662792;0.664854;0.669446;0.661885;0.668101;0.661487;0.668011;0.662066;0.662985;0.662098;0.660087;0.657691;0.661753;0.653349;0.649821;0.650953;0.655148;0.652165;0.648434;0.645913;0.651358;0.644524;0.646134;0.645299;0.638420;0.636648;0.637315;0.629792;0.631193;0.626192;0.621326;0.624814;0.625191;0.614611;0.618233;0.611372;0.605953;0.607341;0.603016;0.604940;0.595528;0.600593;0.597761;0.590741;0.586184;0.587543;0.587648;0.582964;0.577527;0.578829;0.571098;0.573442;0.572695;0.571835;0.563955;0.563699;0.561477;0.557674;0.557947;0.554792;0.549972;0.547929;0.549346;0.543794;0.541128;0.543441;0.539036;0.537769;0.528612;0.533992;0.532716;0.528693;0.526650;0.519984;0.524245;0.525111
0.523107;0.527347;0.533492;0.533782;0.534675;0.534422;0.538290;0.541798;0.542559;0.548560;0.542727;0.550195;0.549502;0.556395;0.556635;0.557809;0.560655;0.565138;0.570749;0.569685;0.571349;0.573558;0.571413;0.578766;0.584982;0.583061;0.583549;0.588588;0.589936;0.592800;0.592016;0.598642;0.595643;0.602663;0.601504;0.605888;0.604828;0.607805;0.609347;0.607390;0.610606;0.613945;0.614682;0.610725;0.603705;0.611133;0.608529;0.619407;0.616986;0.614642;0.614698;0.612661;0.612637;0.614942;0.612572;0.610566;0.612842;0.609994;0.611480;0.609995;0.608811;0.610732;0.604070;0.605568;0.605014;0.602569;0.602945;0.601511;0.601197;0.598182;0.598283;0.596952;0.596325;0.597728;0.594913;0.591878;0.592614;0.595956;0.592517;0.588743;0.592511;0.593079;0.590638;0.584590;0.584777;0.586341;0.588750;0.583990;0.584297;0.581572;0.580655;0.578733;0.578427;0.580348;0.580344;0.583209;0.583310;0.577457;0.582818;0.586364;0.585821;0.583679;0.585584;0.588109;0.587868;0.588374;0.587097;0.592404;0.594981;0.597321;0.600564;0.599785;0.606229;0.607596;0.608710;0.614486;0.619492;0.623796;0.627290;0.632564;0.630703;0.639434;0.646356;0.647570;0.657778;0.660399;0.669952;0.673027;0.682282;0.685379;0.693814;0.704848;0.701876;0.718728;0.728419;0.732614;0.743050;0.739897;0.753543;0.757745;0.762636;0.771965;0.778455;0.782733;0.789555;0.793200;0.800581;0.801729;0.812825;0.814436;0.817374;0.824991;0.820417;0.828017;0.830397;0.833900;0.831382;0.831665;0.833423;0.829656;0.834189;0.837911;0.832800;0.826928;0.823890;0.824925;0.819494;0.812550;0.812060;0.810163;0.799284;0.790659;0.793140;0.787504;0.778389;0.772119;0.763874;0.754513;0.746500;0.738236;0.738756;0.725507;0.716169;0.709339;0.700123;0.693879;0.682786;0.673642;0.670777;0.656400;0.653231;0.647862;0.638721;0.627675;0.622543;0.617628;0.609784;0.607020;0.598901;0.591604
0.552246;0.556222;0.563623;0.566912;0.571727;0.573020;0.577571;0.584456;0.589078;0.592773;0.602371;0.600406;0.605171;0.612765;0.620088;0.625054;0.625181;0.633569;0.636612;0.644721;0.648951;0.656104;0.660626;0.663084;0.671647;0.675738;0.679790;0.683586;0.690114;0.693710;0.699762;0.701930;0.707676;0.711043;0.711609;0.716127;0.719251;0.723062;0.724685;0.728146;0.732380;0.734774;0.734073;0.737043;0.744546;0.741849;0.739117;0.741807;0.742985;0.745885;0.750899;0.740930;0.751428;0.744998;0.744277;0.746361;0.744031;0.745023;0.746019;0.746588;0.740498;0.745394;0.745482;0.738720;0.742863;0.739639;0.741093;0.741615;0.734980;0.730816;0.738310;0.733220;0.734773;0.736099;0.730284;0.734676;0.729831;0.731621;0.732408;0.726569;0.725799;0.725816;0.723480;0.723641;0.724905;0.724505;0.726876;0.722476;0.718450;0.718778;0.717687;0.717725;0.725283;0.720596;0.721330;0.717636;0.724049;0.718751;0.722366;0.719985;0.719065;0.721223;0.718146;0.717590;0.713516;0.714240;0.716659;0.719964;0.711993;0.711636;0.712159;0.711185;0.711382;0.713053;0.704656;0.709556;0.699065;0.703338;0.699323;0.700080;0.697492;0.692150;0.692348;0.688262;0.687245;0.683528;0.683160;0.679548;0.672570;0.668791;0.664905;0.664869;0.658041;0.659748;0.657414;0.652858;0.646493;0.645132;0.639833;0.630796;0.630994;0.626020;0.622619;0.618289;0.611443;0.614782;0.604983;0.605117;0.599805;0.591610;0.589435;0.588542;0.580397;0.576195;0.579967;0.570761;0.568633;0.568720;0.565376;0.561297;0.560482;0.559791;0.552734;0.550924;0.546949;0.543290;0.545892;0.545518;0.539162;0.537914;0.536113;0.529421;0.530267;0.527751;0.533698;0.525441;0.520002;0.525519;0.521459;0.521380;0.516749;0.517926;0.517787;0.518672;0.514718;0.511725;0.512912;0.506582;0.510982;0.510338;0.510353;0.504137;0.513470;0.508581;0.506212;0.506124;0.506008;0.510588;0.507506;0.507532
0.572823;0.575288;0.580017;0.584465;0.585969;0.597485;0.598774;0.606804;0.610864;0.615356;0.620536;0.628820;0.632463;0.643578;0.648522;0.656740;0.663853;0.665959;0.668645;0.677649;0.685975;0.691868;0.693999;0.707033;0.704978;0.712775;0.719735;0.724188;0.730094;0.731461;0.740849;0.747024;0.751605;0.748978;0.755645;0.759772;0.759987;0.761802;0.766085;0.765864;0.769376;0.766354;0.767732;0.768617;0.773610;0.771373;0.765623;0.770519;0.762830;0.764069;0.763086;0.750184;0.757710;0.751296;0.748529;0.748752;0.743386;0.741072;0.734652;0.733951;0.734424;0.729150;0.723998;0.719450;0.716893;0.713467;0.710119;0.704427;0.705053;0.702575;0.695450;0.695797;0.692795;0.688464;0.685851;0.683010;0.680192;0.674628;0.677441;0.671599;0.671309;0.671275;0.675228;0.670924;0.666367;0.667300;0.669315;0.669467;0.666991;0.669300;0.671211;0.668002;0.669565;0.667027;0.669440;0.669396;0.670440;0.673111;0.676369;0.678600;0.675145;0.681222;0.682208;0.680112;0.683081;0.683433;0.681650;0.685251;0.691373;0.692091;0.692225;0.691276;0.688766;0.685307;0.693087;0.693056;0.687701;0.689989;0.695766;0.690944;0.690928;0.684116;0.691969;0.681123;0.686393;0.679184;0.680375;0.681205;0.678237;0.676195;0.671343;0.672636;0.662631;0.660447;0.664573;0.663678;0.655205;0.653093;0.650837;0.650402;0.645681;0.639336;0.639583;0.632211;0.629028;0.629224;0.624723;0.622318;0.620729;0.612158;0.608796;0.610740;0.604006;0.602108;0.595192;0.595744;0.588547;0.583226;0.582737;0.583232;0.574990;0.572166;0.577171;0.571528;0.566837;0.566519;0.563153;0.559845;0.557893;0.559132;0.551278;0.546847;0.549094;0.545311;0.542153;0.541302;0.539595;0.542584;0.537331;0.537802;0.531318;0.528205;0.533606;0.527821;0.525677;0.529945;0.524400;0.527325;0.525647;0.518500;0.525911;0.520740;0.518830;0.518875;0.518543;0.519423;0.511991;0.513758;0.516564;0.510981
0.532449;0.532910;0.537328;0.540585;0.540826;0.544936;0.548469;0.550323;0.555465;0.553970;0.559838;0.559067;0.562209;0.560247;0.567245;0.569798;0.576229;0.576369;0.581692;0.583067;0.589957;0.587093;0.593083;0.593729;0.591931;0.600080;0.604719;0.607153;0.610337;0.614562;0.618203;0.617852;0.621630;0.620178;0.622472;0.621486;0.628749;0.622213;0.625173;0.625665;0.632258;0.629507;0.628650;0.633338;0.633776;0.634716;0.637785;0.633892;0.636925;0.635090;0.644329;0.633982;0.635197;0.639092;0.635121;0.642853;0.642968;0.638683;0.639565;0.639733;0.632961;0.636819;0.637301;0.639193;0.636072;0.639537;0.638758;0.637353;0.640139;0.635261;0.640116;0.638423;0.642352;0.640128;0.641421;0.643330;0.643631;0.647689;0.650148;0.648670;0.656916;0.650304;0.656161;0.656414;0.656803;0.660988;0.665765;0.665919;0.670870;0.672961;0.678768;0.684149;0.682961;0.687239;0.683203;0.695808;0.698387;0.702143;0.704201;0.705927;0.711562;0.715058;0.719969;0.722149;0.721054;0.725883;0.733073;0.739081;0.733954;0.742861;0.739928;0.745406;0.746789;0.752460;0.747051;0.748894;0.756051;0.755109;0.757702;0.756313;0.758783;0.759303;0.761221;0.763277;0.759258;0.768343;0.758815;0.759388;0.757270;0.756313;0.755884;0.754994;0.754035;0.749692;0.751941;0.750420;0.740559;0.744561;0.742922;0.739169;0.735150;0.732102;0.729943;0.722823;0.722435;0.723774;0.722129;0.710353;0.711799;0.704716;0.707838;0.703221;0.700001;0.697332;0.688946;0.684504;0.683472;0.681764;0.674805;0.673284;0.667429;0.662215;0.658287;0.656714;0.650820;0.648161;0.641681;0.636861;0.634713;0.630471;0.628742;0.624888;0.616461;0.613591;0.613906;0.608887;0.601696;0.601905;0.593412;0.591122;0.586332;0.584674;0.578573;0.579611;0.574048;0.569546;0.564540;0.565433;0.557796;0.559071;0.553961;0.547040;0.546356;0.547991;0.533778;0.539270;0.540490;0.536680;0.536536;0.526277
0.507361;0.508222;0.512308;0.508824;0.514465;0.512557;0.513138;0.510173;0.509899;0.510261;0.515472;0.513953;0.510137;0.517889;0.519959;0.521775;0.518431;0.523805;0.523922;0.524976;0.522805;0.523931;0.522411;0.525402;0.527655;0.530908;0.531329;0.528418;0.532347;0.539548;0.539530;0.537647;0.543293;0.543930;0.543072;0.548049;0.548680;0.557184;0.553511;0.551061;0.556927;0.560693;0.566908;0.564217;0.563138;0.570449;0.565198;0.573495;0.573847;0.573173;0.577744;0.583006;0.579993;0.589444;0.589387;0.587333;0.594196;0.595593;0.596023;0.602371;0.601037;0.608696;0.609638;0.610953;0.616427;0.620712;0.623780;0.623005;0.628440;0.631139;0.632018;0.635772;0.638900;0.635048;0.640592;0.639102;0.647271;0.646668;0.649433;0.650802;0.650227;0.651387;0.654796;0.657642;0.656014;0.659969;0.664675;0.661930;0.667652;0.663740;0.670450;0.667217;0.674189;0.670047;0.675024;0.675406;0.676432;0.673841;0.677022;0.682756;0.681636;0.683127;0.680112;0.687020;0.687719;0.685089;0.687280;0.691591;0.696269;0.695485;0.694376;0.698130;0.695473;0.702564;0.703450;0.707265;0.705586;0.706219;0.710402;0.717530;0.714899;0.719509;0.720888;0.723590;0.722753;0.728730;0.737447;0.732157;0.732386;0.735239;0.738317;0.745659;0.748178;0.752113;0.751410;0.757473;0.758426;0.756747;0.764701;0.762980;0.768449;0.766688;0.776767;0.776464;0.771662;0.775850;0.777551;0.776376;0.782339;0.779530;0.774926;0.779168;0.778337;0.779823;0.781153;0.776258;0.778083;0.778826;0.775013;0.773896;0.773464;0.765297;0.764642;0.757082;0.758365;0.755323;0.749077;0.745633;0.738959;0.736474;0.729422;0.727069;0.719620;0.712148;0.710146;0.699938;0.698674;0.695554;0.687363;0.678438;0.674373;0.666534;0.659270;0.652404;0.643720;0.642564;0.632392;0.628142;0.622568;0.613504;0.608844;0.603490;0.596021;0.591380;0.586202;0.577515;0.574498;0.569207;0.566569;0.559991
0.526112;0.528020;0.534298;0.534224;0.533266;0.532828;0.536437;0.535483;0.544485;0.547634;0.546990;0.544739;0.557219;0.558315;0.558361;0.560591;0.566064;0.568818;0.576316;0.577297;0.579042;0.583026;0.582212;0.587716;0.588270;0.599130;0.595865;0.608689;0.601515;0.605638;0.607847;0.611528;0.616108;0.619081;0.616218;0.622620;0.626185;0.635479;0.631080;0.636290;0.632518;0.635312;0.638647;0.644545;0.649238;0.653223;0.652963;0.657670;0.662232;0.658395;0.661758;0.666806;0.666976;0.665094;0.675482;0.673357;0.675594;0.673477;0.677116;0.680454;0.681208;0.688850;0.687469;0.690583;0.692473;0.696386;0.697202;0.696728;0.698419;0.701575;0.703565;0.712288;0.702957;0.714568;0.714663;0.714002;0.718538;0.717816;0.716955;0.715346;0.722910;0.728306;0.726589;0.728416;0.725510;0.729093;0.734338;0.733522;0.734248;0.737710;0.740593;0.746860;0.746851;0.747775;0.746279;0.745052;0.752432;0.752375;0.747639;0.753872;0.756056;0.754683;0.759248;0.757495;0.762080;0.761603;0.760076;0.758150;0.759088;0.759833;0.761695;0.764502;0.760745;0.757986;0.758202;0.760981;0.762635;0.757717;0.759698;0.755780;0.755050;0.754031;0.750823;0.748717;0.750741;0.742652;0.742250;0.740343;0.735754;0.738545;0.738953;0.728802;0.726051;0.727116;0.719936;0.717411;0.713887;0.710227;0.709689;0.703396;0.699925;0.693166;0.690369;0.687572;0.685566;0.680321;0.677115;0.675019;0.669683;0.663556;0.659951;0.656012;0.658083;0.649986;0.639304;0.640644;0.641411;0.630079;0.632483;0.625585;0.622879;0.620273;0.615627;0.612865;0.606939;0.602411;0.605145;0.600234;0.596060;0.595842;0.590812;0.587259;0.583906;0.578401;0.572440;0.573648;0.572000;0.570940;0.562144;0.557806;0.557472;0.555464;0.555701;0.549289;0.548584;0.545967;0.546934;0.541921;0.535471;0.541313;0.541606;0.532117;0.530760;0.528740;0.531285;0.530772;0.526415;0.525377;0.526110;0.519822
0.549033;0.548607;0.553256;0.556297;0.557306;0.560044;0.567393;0.570929;0.575551;0.574077;0.584000;0.584791;0.591012;0.590618;0.599763;0.606774;0.610303;0.609885;0.617576;0.618641;0.627406;0.634414;0.630324;0.635322;0.643901;0.650432;0.651869;0.653373;0.659559;0.666544;0.670524;0.673085;0.680075;0.676369;0.686344;0.690353;0.687754;0.694506;0.696830;0.701633;0.704744;0.701475;0.706041;0.716244;0.712371;0.714834;0.716078;0.717878;0.722749;0.718824;0.722473;0.726646;0.725153;0.726606;0.732390;0.728419;0.734172;0.729937;0.733651;0.734200;0.735992;0.735516;0.734249;0.737033;0.733673;0.738079;0.736061;0.735911;0.744219;0.738327;0.734580;0.736550;0.743722;0.737905;0.744352;0.743488;0.739754;0.740869;0.742863;0.746705;0.750502;0.746197;0.745425;0.751157;0.749902;0.747528;0.750677;0.751305;0.748076;0.752078;0.747896;0.753849;0.750283;0.756379;0.754025;0.756255;0.758185;0.760674;0.758999;0.761271;0.762503;0.757482;0.762926;0.764589;0.764500;0.764468;0.756819;0.758892;0.755421;0.757537;0.757269;0.757605;0.753757;0.750330;0.757454;0.754017;0.752231;0.749422;0.746809;0.741088;0.740335;0.735121;0.734653;0.732198;0.729336;0.721123;0.723131;0.718904;0.713491;0.710232;0.700832;0.696341;0.690882;0.688019;0.683032;0.679539;0.675715;0.665386;0.665353;0.659539;0.654719;0.648708;0.647652;0.635753;0.633836;0.626575;0.615154;0.617342;0.609676;0.605939;0.601051;0.592019;0.588763;0.585672;0.578069;0.579394;0.576962;0.568575;0.563124;0.563389;0.560601;0.556019;0.553922;0.550361;0.548356;0.541559;0.544774;0.536932;0.535558;0.532801;0.533118;0.532755;0.527139;0.528335;0.527823;0.525541;0.521091;0.523155;0.515828;0.518269;0.514578;0.515751;0.521035;0.514221;0.512909;0.509745;0.514559;0.512306;0.513510;0.515462;0.512966;0.511542;0.512844;0.512294;0.507049;0.507265;0.506893;0.510042;0.507874;0.507458
0.620353;0.629403;0.637844;0.643501;0.651918;0.662689;0.668003;0.678876;0.689303;0.701515;0.704801;0.716945;0.728974;0.738167;0.752760;0.759895;0.773786;0.782428;0.793289;0.803976;0.812912;0.827160;0.833069;0.843851;0.849750;0.860304;0.868562;0.873629;0.888553;0.890777;0.897236;0.907631;0.914748;0.915293;0.920947;0.928527;0.931792;0.930444;0.933772;0.941566;0.937198;0.937110;0.938475;0.935919;0.931321;0.932130;0.931581;0.927409;0.923232;0.918509;0.909471;0.906131;0.899082;0.894360;0.887697;0.877644;0.869262;0.862501;0.854822;0.851523;0.836799;0.823357;0.819434;0.806789;0.790786;0.789419;0.782919;0.773339;0.754646;0.752981;0.743170;0.736192;0.725668;0.712859;0.711094;0.701142;0.689319;0.684589;0.672062;0.665575;0.662444;0.649479;0.640758;0.641207;0.635855;0.631513;0.620618;0.617139;0.607750;0.610142;0.600794;0.594882;0.590045;0.588382;0.586657;0.575630;0.575784;0.573772;0.577892;0.572599;0.564100;0.562454;0.560781;0.559300;0.557995;0.558001;0.549573;0.549951;0.552699;0.546360;0.549405;0.544439;0.543379;0.546131;0.536699;0.539960;0.540751;0.538481;0.543377;0.539715;0.534191;0.537245;0.534586;0.535948;0.536808;0.536592;0.535016;0.534698;0.535282;0.533127;0.532585;0.528930;0.529180;0.537476;0.531628;0.528409;0.529383;0.529885;0.527175;0.523596;0.524213;0.526267;0.530730;0.525911;0.525902;0.530040;0.531021;0.529829;0.527153;0.531032;0.525988;0.527905;0.525206;0.528510;0.530186;0.525273;0.527111;0.522366;0.526408;0.523343;0.523642;0.524117;0.522396;0.523099;0.519564;0.523327;0.520050;0.519090;0.517596;0.519487;0.523257;0.521748;0.517444;0.516047;0.521050;0.512744;0.516624;0.516414;0.516399;0.516809;0.518778;0.515259;0.512284;0.515557;0.516346;0.512210;0.509237;0.513985;0.512064;0.509134;0.510762;0.509586;0.510123;0.508976;0.513125;0.510790;0.506850;0.508134;0.509180;0.507166
0.543495;0.540517;0.538249;0.544180;0.549333;0.551901;0.556673;0.560493;0.562887;0.560889;0.566451;0.574488;0.574751;0.579477;0.584998;0.586970;0.592850;0.595770;0.597590;0.601613;0.607399;0.610470;0.613305;0.617503;0.618534;0.620045;0.622978;0.625855;0.629836;0.631768;0.636136;0.640781;0.643561;0.644093;0.644097;0.649801;0.645762;0.649767;0.649101;0.657375;0.651388;0.644852;0.652717;0.653887;0.656778;0.653916;0.654409;0.654837;0.653819;0.655089;0.648795;0.655053;0.648998;0.648231;0.648185;0.647334;0.645516;0.647309;0.642145;0.646943;0.643548;0.639591;0.637442;0.638809;0.644128;0.642497;0.635782;0.639397;0.636779;0.638188;0.643213;0.632384;0.641303;0.641585;0.641705;0.640706;0.641802;0.643829;0.642023;0.648274;0.650817;0.656057;0.654792;0.657263;0.660624;0.664492;0.667249;0.671397;0.671342;0.676991;0.683664;0.688886;0.694821;0.696051;0.703350;0.707239;0.711068;0.716899;0.720603;0.724686;0.727665;0.731186;0.737051;0.744829;0.744455;0.754453;0.760746;0.766024;0.766744;0.769469;0.771200;0.777019;0.779733;0.779402;0.785905;0.785111;0.788072;0.792175;0.785298;0.793125;0.789939;0.790980;0.792465;0.786441;0.784643;0.789911;0.784740;0.786384;0.783562;0.779973;0.776016;0.775123;0.773134;0.767139;0.763685;0.759799;0.756224;0.751857;0.750025;0.741680;0.735877;0.736108;0.731024;0.722438;0.721174;0.717203;0.709506;0.703380;0.702881;0.695380;0.687891;0.680731;0.675218;0.677005;0.668541;0.662141;0.659528;0.653017;0.645030;0.645487;0.639981;0.632865;0.630649;0.631193;0.624703;0.614050;0.615700;0.608892;0.608788;0.600000;0.599177;0.591271;0.594130;0.589920;0.580415;0.576788;0.580145;0.568140;0.573598;0.568077;0.564933;0.560824;0.557689;0.556650;0.549804;0.556695;0.557725;0.552464;0.545916;0.544703;0.539513;0.544602;0.534669;0.534091;0.533953;0.530882;0.535699;0.527569;0.530231;0.530967
0.520917;0.523280;0.525838;0.526594;0.528718;0.529054;0.528998;0.533490;0.535908;0.538538;0.541256;0.543919;0.542811;0.550340;0.550416;0.552891;0.555526;0.554792;0.567725;0.565467;0.572126;0.565475;0.571935;0.579307;0.583138;0.583602;0.581316;0.590142;0.593808;0.596891;0.598970;0.604870;0.607968;0.611662;0.616014;0.621807;0.620035;0.628479;0.631133;0.637256;0.638650;0.645127;0.651026;0.656240;0.655968;0.665640;0.668272;0.672120;0.673007;0.683326;0.689393;0.688396;0.695071;0.703230;0.704398;0.711669;0.713732;0.719089;0.729113;0.726026;0.735377;0.740260;0.747362;0.748333;0.758317;0.756590;0.767111;0.768900;0.771857;0.771851;0.776292;0.782806;0.783507;0.790405;0.790871;0.798881;0.805390;0.796206;0.804043;0.809732;0.806827;0.805418;0.811962;0.812029;0.812232;0.816687;0.813199;0.813025;0.813995;0.811743;0.815577;0.814806;0.813913;0.815362;0.811604;0.807053;0.807982;0.806847;0.803623;0.799867;0.800294;0.799291;0.799086;0.800581;0.792113;0.795615;0.790483;0.786317;0.785592;0.785076;0.778262;0.774732;0.769994;0.767445;0.769189;0.761345;0.759371;0.750543;0.754111;0.751284;0.748270;0.738995;0.737393;0.730625;0.722141;0.725171;0.720605;0.709836;0.710324;0.702502;0.697769;0.700489;0.688521;0.684381;0.679405;0.675314;0.670545;0.664905;0.667511;0.658649;0.656309;0.646508;0.643075;0.636904;0.638909;0.625677;0.623575;0.619404;0.613374;0.608210;0.605203;0.605139;0.600658;0.589302;0.594673;0.586684;0.579761;0.578427;0.572703;0.574493;0.567428;0.565283;0.559209;0.557748;0.557569;0.553758;0.552580;0.548875;0.542934;0.540418;0.539431;0.541944;0.542506;0.538150;0.533684;0.536302;0.534887;0.527295;0.526466;0.526450;0.527481;0.528249;0.522410;0.515302;0.522831;0.517090;0.516851;0.519723;0.513801;0.516319;0.515812;0.515003;0.509241;0.509464;0.506847;0.509529;0.507515;0.513508;0.507752;0.506679
0.570945;0.572678;0.579664;0.582130;0.590464;0.591718;0.601410;0.609365;0.611455;0.612296;0.621901;0.626093;0.638276;0.648265;0.641253;0.656770;0.661197;0.669023;0.676323;0.675924;0.684943;0.689492;0.698306;0.700567;0.708095;0.712478;0.717062;0.726497;0.729147;0.733630;0.739141;0.737166;0.744881;0.748849;0.752139;0.753448;0.754242;0.757887;0.762581;0.757613;0.761702;0.756217;0.760088;0.760367;0.761787;0.761892;0.760135;0.752836;0.754677;0.749586;0.745332;0.746525;0.742871;0.738985;0.734154;0.732597;0.730447;0.726684;0.716948;0.717474;0.710928;0.704501;0.703073;0.696866;0.692719;0.687312;0.684547;0.678023;0.674033;0.670858;0.667094;0.660253;0.661211;0.651046;0.649204;0.648914;0.641335;0.641259;0.640743;0.639114;0.630156;0.636478;0.632292;0.626743;0.630349;0.622978;0.629044;0.620594;0.622289;0.621221;0.623553;0.622105;0.622769;0.625801;0.625226;0.623998;0.629048;0.627699;0.633517;0.628364;0.628132;0.631141;0.637833;0.639174;0.637669;0.635485;0.640732;0.637888;0.640006;0.641057;0.646216;0.649101;0.649650;0.650385;0.653770;0.651725;0.655403;0.655043;0.658456;0.656890;0.655804;0.663546;0.660279;0.658656;0.660150;0.656516;0.663647;0.656532;0.661746;0.666687;0.663917;0.658627;0.660124;0.658982;0.663083;0.661840;0.661387;0.657315;0.653185;0.660192;0.657649;0.657327;0.653279;0.653015;0.650252;0.646360;0.647648;0.643570;0.645042;0.644636;0.644216;0.641068;0.640811;0.640906;0.632210;0.634366;0.632890;0.627804;0.630837;0.621958;0.620327;0.619405;0.615955;0.613546;0.609342;0.609069;0.604036;0.600265;0.600474;0.594880;0.595115;0.592996;0.588944;0.588835;0.586956;0.581281;0.584305;0.576504;0.575419;0.575483;0.570304;0.558198;0.563153;0.560676;0.556011;0.552494;0.557289;0.547197;0.546163;0.548214;0.539850;0.536657;0.540025;0.534990;0.533748;0.527968;0.525580;0.528369;0.528117;0.523962
0.524159;0.525428;0.524888;0.522253;0.526210;0.525082;0.528791;0.533195;0.531224;0.535220;0.538838;0.540022;0.539127;0.543540;0.545036;0.543590;0.551521;0.553096;0.549493;0.551880;0.557880;0.560631;0.560630;0.560116;0.566362;0.564103;0.570887;0.572963;0.570848;0.579987;0.574738;0.579396;0.584948;0.582341;0.587854;0.590129;0.590052;0.589554;0.591460;0.598711;0.591862;0.599155;0.595421;0.602269;0.600764;0.603542;0.601242;0.609264;0.608152;0.609064;0.607894;0.611863;0.617542;0.608891;0.613627;0.616430;0.618444;0.615812;0.620606;0.621924;0.628838;0.626621;0.623820;0.626063;0.628060;0.629237;0.632292;0.631708;0.638273;0.638394;0.635662;0.639487;0.641517;0.644397;0.651031;0.648910;0.651806;0.655559;0.661793;0.659868;0.668010;0.669843;0.672109;0.672158;0.676512;0.681160;0.684675;0.688591;0.690368;0.695489;0.703082;0.702406;0.704852;0.710201;0.713203;0.719325;0.724088;0.727909;0.731733;0.732156;0.737172;0.740006;0.745882;0.752044;0.748524;0.751673;0.760736;0.763632;0.764329;0.765199;0.767129;0.769037;0.777404;0.777764;0.781758;0.779684;0.783315;0.788715;0.785330;0.781385;0.789202;0.791995;0.788638;0.786298;0.783285;0.787164;0.793581;0.787682;0.782444;0.781926;0.778305;0.777700;0.775977;0.773534;0.769824;0.768958;0.765107;0.764047;0.762209;0.762391;0.755956;0.752681;0.743896;0.746818;0.737232;0.733712;0.729950;0.727628;0.728544;0.720952;0.713038;0.714522;0.708400;0.702713;0.701331;0.699498;0.693571;0.692528;0.682838;0.684336;0.682834;0.673929;0.665640;0.667403;0.659151;0.655902;0.647949;0.648611;0.642824;0.639521;0.632115;0.630805;0.625104;0.620843;0.610381;0.612078;0.605206;0.606473;0.598556;0.598797;0.587814;0.590904;0.585440;0.583550;0.574402;0.580435;0.575636;0.561848;0.564116;0.558187;0.557794;0.548233;0.550882;0.548248;0.541993;0.541464;0.541168;0.538122;0.536759;0.534538
0.539963;0.546887;0.547973;0.548783;0.552935;0.556402;0.564033;0.560210;0.567886;0.566918;0.573497;0.572895;0.579634;0.585231;0.584826;0.590921;0.595237;0.597894;0.602009;0.601339;0.607667;0.613974;0.611282;0.612829;0.623929;0.625630;0.632432;0.630782;0.633155;0.638045;0.641960;0.642209;0.642778;0.644738;0.646332;0.648872;0.647410;0.648942;0.650704;0.653576;0.651968;0.653850;0.657013;0.652097;0.656420;0.653971;0.655222;0.652168;0.653209;0.648948;0.648418;0.645195;0.640893;0.644741;0.641540;0.633862;0.634878;0.634606;0.629699;0.627533;0.627831;0.625706;0.619854;0.623568;0.612097;0.612823;0.614052;0.616897;0.614375;0.610383;0.612639;0.602811;0.603781;0.604897;0.600297;0.601239;0.608415;0.602550;0.605691;0.599716;0.606974;0.606769;0.607220;0.606138;0.606652;0.612630;0.612427;0.614973;0.619720;0.622364;0.625584;0.628159;0.631958;0.637539;0.637657;0.643554;0.642700;0.647624;0.655711;0.654103;0.660147;0.661646;0.666812;0.669279;0.677422;0.682587;0.686107;0.686111;0.692268;0.693470;0.694750;0.701312;0.703999;0.707866;0.714713;0.718954;0.719094;0.726011;0.728051;0.727091;0.731183;0.735032;0.732074;0.739974;0.741215;0.742424;0.743458;0.745722;0.747037;0.751613;0.749864;0.754079;0.752298;0.755862;0.755542;0.749638;0.755240;0.754433;0.752589;0.751641;0.750608;0.755422;0.744201;0.751386;0.750216;0.747333;0.746412;0.741127;0.742441;0.740964;0.737794;0.737131;0.731914;0.737173;0.736823;0.728166;0.725531;0.723645;0.722279;0.717977;0.716594;0.707443;0.710374;0.703896;0.701491;0.696438;0.689290;0.688303;0.681887;0.677356;0.675773;0.672045;0.666767;0.661884;0.659542;0.654322;0.647162;0.645186;0.634572;0.628590;0.630062;0.623090;0.619324;0.613130;0.607236;0.608301;0.601940;0.597756;0.588134;0.590087;0.585033;0.584633;0.573501;0.571943;0.561026;0.562529;0.562860;0.556429;0.555488;0.551312
0.548805;0.550799;0.553163;0.552472;0.557221;0.564421;0.568951;0.567352;0.573848;0.576906;0.577551;0.584602;0.587430;0.591727;0.598127;0.603383;0.602446;0.609349;0.612820;0.623149;0.622426;0.625747;0.629111;0.637704;0.639823;0.638045;0.648838;0.653892;0.657932;0.660768;0.660767;0.666684;0.670135;0.676420;0.680412;0.684012;0.686032;0.688351;0.689931;0.691956;0.694169;0.695347;0.696934;0.699552;0.699754;0.704879;0.705548;0.706227;0.705783;0.708499;0.707116;0.711177;0.709516;0.710328;0.711699;0.707435;0.708195;0.710136;0.706991;0.707283;0.708474;0.708690;0.710056;0.709425;0.706508;0.703955;0.702246;0.705813;0.704687;0.701818;0.697921;0.701056;0.698185;0.697904;0.698449;0.689678;0.692956;0.690752;0.692328;0.687763;0.680372;0.690293;0.680270;0.683849;0.682493;0.678231;0.678348;0.672852;0.677290;0.670691;0.672176;0.669510;0.664115;0.667231;0.662664;0.666656;0.660043;0.657712;0.660322;0.654612;0.652968;0.651359;0.658035;0.654835;0.646575;0.651224;0.648038;0.653330;0.648572;0.645534;0.643632;0.645797;0.639757;0.643481;0.643362;0.638389;0.640245;0.644089;0.641239;0.643798;0.643544;0.645811;0.642231;0.641903;0.644028;0.646553;0.648924;0.648626;0.646114;0.644735;0.652836;0.657340;0.655527;0.659059;0.656033;0.653995;0.656125;0.658222;0.654849;0.659295;0.664201;0.664090;0.664837;0.661623;0.665235;0.665436;0.665355;0.669431;0.668586;0.666218;0.667550;0.666133;0.671146;0.669979;0.665900;0.665626;0.664539;0.666194;0.659827;0.669319;0.658787;0.661601;0.662064;0.655890;0.656955;0.652758;0.652845;0.649175;0.645174;0.642169;0.640186;0.637101;0.627250;0.626790;0.623723;0.619187;0.617482;0.615552;0.609285;0.600065;0.600205;0.599966;0.594834;0.593188;0.584329;0.581765;0.578833;0.573708;0.565691;0.564602;0.563288;0.564311;0.558117;0.559533;0.545247;0.545548;0.545445;0.537770;0.537573;0.536797
0.517585;0.517309;0.519602;0.525175;0.521718;0.524192;0.526086;0.530468;0.531784;0.536849;0.532205;0.532518;0.542212;0.543280;0.543867;0.550873;0.548810;0.551423;0.549930;0.555863;0.562187;0.568740;0.562286;0.570332;0.574881;0.577012;0.581386;0.586955;0.591467;0.593330;0.598790;0.601766;0.602699;0.614046;0.617765;0.617617;0.623674;0.629114;0.634213;0.642428;0.647032;0.647548;0.661718;0.665653;0.669158;0.676219;0.678655;0.684786;0.700178;0.699469;0.711763;0.716030;0.725322;0.726142;0.733346;0.740291;0.746917;0.755955;0.757839;0.760696;0.769009;0.771128;0.779925;0.783953;0.794212;0.795151;0.803865;0.803870;0.809547;0.815534;0.814346;0.817839;0.820230;0.820465;0.828251;0.828736;0.827583;0.826781;0.827986;0.831533;0.830437;0.825001;0.823004;0.819776;0.817189;0.817132;0.810230;0.807536;0.801288;0.803473;0.793964;0.790056;0.784404;0.778972;0.773211;0.760725;0.761753;0.753356;0.741619;0.739307;0.731715;0.720886;0.718964;0.711682;0.701859;0.694128;0.688971;0.686091;0.681995;0.672797;0.663070;0.657745;0.654298;0.646686;0.647041;0.637956;0.635871;0.630280;0.625461;0.623677;0.613558;0.611155;0.612527;0.613141;0.607380;0.608971;0.607126;0.603455;0.605356;0.602008;0.606674;0.599305;0.601042;0.607435;0.597153;0.603150;0.606368;0.606235;0.603681;0.608434;0.605047;0.607604;0.612464;0.616364;0.619009;0.614108;0.615360;0.615510;0.620002;0.624261;0.622456;0.627028;0.623433;0.624535;0.620633;0.626303;0.623248;0.626488;0.625824;0.621788;0.625363;0.630197;0.624958;0.620429;0.621831;0.617501;0.625236;0.617984;0.613337;0.615167;0.610818;0.607282;0.608759;0.602281;0.598936;0.603414;0.598317;0.594801;0.591275;0.590314;0.585646;0.583127;0.581143;0.575044;0.573655;0.571730;0.567548;0.561837;0.560047;0.552315;0.552773;0.553646;0.549470;0.548479;0.541596;0.539247;0.536277;0.538530;0.532800;0.532998
0.525500;0.524953;0.528938;0.529704;0.534764;0.536104;0.541644;0.538847;0.541262;0.543985;0.546871;0.550119;0.549391;0.560446;0.557165;0.563396;0.562927;0.566640;0.571320;0.575220;0.575387;0.577364;0.584897;0.588074;0.592014;0.590279;0.600696;0.602160;0.606422;0.611399;0.609720;0.612973;0.620247;0.625765;0.625001;0.630693;0.634253;0.637278;0.646121;0.648965;0.655302;0.651709;0.658059;0.664344;0.667055;0.670267;0.679207;0.682465;0.688929;0.692060;0.692871;0.699796;0.711453;0.708424;0.708383;0.719473;0.724019;0.726885;0.730324;0.736244;0.737308;0.744923;0.744056;0.753875;0.757186;0.757878;0.758108;0.765418;0.768724;0.776670;0.778247;0.779039;0.785599;0.788054;0.790811;0.791609;0.796552;0.795584;0.794336;0.803375;0.802697;0.803003;0.801420;0.801042;0.809966;0.807131;0.804854;0.812023;0.811163;0.806342;0.808983;0.809243;0.810571;0.804547;0.803586;0.807025;0.805613;0.801725;0.802460;0.802883;0.801618;0.802158;0.794490;0.792260;0.793410;0.789056;0.792000;0.785956;0.787149;0.780978;0.781302;0.780977;0.770358;0.768680;0.765219;0.765573;0.757026;0.751680;0.750555;0.746678;0.746011;0.737908;0.736265;0.736485;0.730133;0.719415;0.717298;0.720030;0.715435;0.702423;0.696502;0.697271;0.692905;0.684761;0.681442;0.676981;0.668380;0.666040;0.658085;0.656149;0.649880;0.646145;0.640046;0.636973;0.626135;0.628883;0.622393;0.616276;0.611205;0.603258;0.605596;0.590809;0.592926;0.594786;0.587094;0.587861;0.580070;0.577326;0.568680;0.569909;0.563856;0.561543;0.561959;0.558952;0.552831;0.546293;0.548080;0.544181;0.537888;0.543189;0.541616;0.534706;0.531096;0.532606;0.532080;0.537286;0.526569;0.523997;0.526014;0.526911;0.530806;0.526524;0.522243;0.519566;0.519689;0.517920;0.519318;0.520278;0.516680;0.517790;0.515190;0.513005;0.517270;0.514008;0.510843;0.511625;0.506019;0.511308;0.511778;0.510439
0.596440;0.602769;0.611451;0.614290;0.621659;0.627129;0.635903;0.641288;0.648127;0.654630;0.665371;0.676577;0.686563;0.689183;0.699082;0.708271;0.715929;0.725282;0.733399;0.744260;0.757827;0.757334;0.767498;0.781236;0.784596;0.790996;0.803729;0.805110;0.813738;0.815571;0.825849;0.831012;0.835927;0.839650;0.843466;0.849982;0.851847;0.857418;0.859635;0.859373;0.865431;0.870670;0.866175;0.869583;0.868060;0.866914;0.866764;0.860247;0.865754;0.860374;0.857708;0.855474;0.850449;0.842825;0.842675;0.835765;0.836932;0.825713;0.824935;0.820663;0.810828;0.806818;0.799464;0.793539;0.789527;0.783961;0.777112;0.773540;0.768691;0.761575;0.753203;0.745241;0.741087;0.731179;0.732804;0.723426;0.718588;0.713734;0.706551;0.700710;0.700434;0.690735;0.683108;0.685144;0.678263;0.670893;0.668330;0.662705;0.662358;0.661691;0.651128;0.648572;0.648742;0.647047;0.638153;0.638169;0.634057;0.626462;0.629119;0.623555;0.621462;0.624454;0.618518;0.611021;0.612694;0.612054;0.608663;0.607386;0.605349;0.600646;0.602568;0.593480;0.599565;0.593949;0.589266;0.594129;0.590644;0.584100;0.586526;0.584908;0.584117;0.583220;0.582822;0.579635;0.576857;0.580112;0.580613;0.573792;0.570806;0.571731;0.568052;0.560498;0.564859;0.562535;0.560530;0.561152;0.559271;0.559979;0.555893;0.556683;0.556728;0.552231;0.551953;0.543994;0.550334;0.546838;0.544241;0.542813;0.541944;0.542430;0.539544;0.536679;0.538409;0.531605;0.537912;0.534581;0.537563;0.535023;0.531981;0.529601;0.530994;0.530423;0.532508;0.525110;0.522600;0.525866;0.525398;0.519928;0.523425;0.520406;0.515106;0.521790;0.520691;0.517041;0.519190;0.511835;0.514440;0.513110;0.513829;0.513352;0.507966;0.509938;0.512953;0.509972;0.505915;0.507953;0.508539;0.507794;0.507750;0.509445;0.502178;0.506957;0.509637;0.503929;0.503927;0.506590;0.506813;0.502455;0.499676;0.498050
0.506644;0.501474;0.504524;0.500092;0.502687;0.505207;0.505432;0.503755;0.501100;0.501093;0.505768;0.504267;0.506897;0.508774;0.511642;0.507557;0.510148;0.509077;0.510522;0.510495;0.515244;0.513256;0.512293;0.515931;0.519985;0.518572;0.521828;0.521687;0.524694;0.526918;0.533103;0.533477;0.535861;0.537617;0.540328;0.545663;0.549457;0.550947;0.556841;0.560257;0.563622;0.568251;0.570090;0.575344;0.587049;0.590482;0.599427;0.596247;0.604932;0.608099;0.613337;0.621923;0.627324;0.633010;0.634384;0.644665;0.652244;0.657260;0.667672;0.668349;0.670039;0.678584;0.687528;0.687210;0.696829;0.700834;0.710158;0.716133;0.717335;0.726378;0.728659;0.736795;0.736154;0.745986;0.745155;0.750230;0.757006;0.751934;0.763259;0.758087;0.760133;0.764789;0.769181;0.774211;0.775133;0.776266;0.777116;0.777704;0.782823;0.778493;0.778561;0.779762;0.779077;0.780246;0.776824;0.774755;0.775844;0.772977;0.772060;0.770036;0.773456;0.772349;0.767852;0.770407;0.768266;0.762272;0.763010;0.760838;0.755843;0.757261;0.756394;0.755746;0.755133;0.745735;0.744677;0.744524;0.744861;0.740479;0.740434;0.744308;0.735251;0.733438;0.740993;0.735502;0.733025;0.732602;0.728568;0.733813;0.724378;0.724409;0.722822;0.722088;0.723655;0.715035;0.717861;0.716342;0.716805;0.714317;0.715217;0.711895;0.712453;0.710606;0.710310;0.704567;0.707478;0.704261;0.706281;0.702342;0.701483;0.693192;0.694999;0.693857;0.690936;0.692677;0.685073;0.684573;0.681303;0.682060;0.677084;0.675292;0.676112;0.667863;0.662056;0.662127;0.662764;0.653430;0.655249;0.651838;0.643661;0.645414;0.633941;0.633036;0.631734;0.630922;0.623131;0.620484;0.621473;0.615838;0.610082;0.603303;0.601625;0.596228;0.590819;0.586539;0.582025;0.581708;0.578700;0.572492;0.574178;0.568111;0.561711;0.557166;0.561401;0.551040;0.552560;0.547283;0.545224;0.542006;0.538271;0.538226
0.591684;0.593399;0.609717;0.610161;0.624614;0.627544;0.631954;0.642157;0.650097;0.654608;0.664198;0.673337;0.687154;0.687343;0.695848;0.706504;0.714507;0.723498;0.733910;0.738499;0.741413;0.752542;0.761507;0.770154;0.773787;0.783718;0.790141;0.796003;0.800638;0.808352;0.813145;0.815744;0.819265;0.828887;0.822904;0.832066;0.833396;0.837074;0.840012;0.841556;0.842090;0.839929;0.841563;0.837681;0.839846;0.835516;0.833274;0.833958;0.828203;0.821090;0.812457;0.808886;0.806585;0.799723;0.790567;0.790914;0.781109;0.771586;0.769959;0.760130;0.752035;0.746474;0.740690;0.732274;0.729031;0.716542;0.708351;0.702211;0.691752;0.686721;0.682033;0.670568;0.664372;0.655021;0.650913;0.642843;0.633146;0.625638;0.624322;0.612068;0.610207;0.608263;0.597104;0.599088;0.591582;0.582086;0.580916;0.576348;0.573999;0.568052;0.569401;0.567920;0.564336;0.561410;0.562049;0.557171;0.556473;0.553581;0.548708;0.555979;0.551813;0.550312;0.552307;0.549788;0.545396;0.550638;0.543344;0.546738;0.550343;0.550182;0.549443;0.544152;0.549517;0.553382;0.553289;0.553903;0.554731;0.554331;0.558198;0.559676;0.565656;0.563935;0.567931;0.571548;0.570253;0.569574;0.575578;0.576809;0.579228;0.580737;0.581443;0.590875;0.590084;0.591250;0.596419;0.602490;0.599897;0.604357;0.603563;0.609961;0.611242;0.612596;0.616295;0.616169;0.619633;0.622359;0.621733;0.625665;0.623750;0.626525;0.629834;0.631992;0.634212;0.631049;0.633160;0.630020;0.634306;0.628949;0.636268;0.633964;0.633963;0.630899;0.630952;0.630785;0.626177;0.624690;0.622107;0.627337;0.621366;0.618338;0.618318;0.616225;0.620728;0.612071;0.606420;0.604589;0.608305;0.599196;0.600524;0.591534;0.592303;0.591338;0.583123;0.578715;0.576610;0.574310;0.572972;0.566306;0.567805;0.562172;0.557923;0.557542;0.555664;0.553302;0.551762;0.543634;0.545262;0.541863;0.538685;0.534827
0.529781;0.524599;0.526242;0.534174;0.529446;0.534950;0.537081;0.539737;0.544870;0.539811;0.547107;0.551610;0.551090;0.547925;0.552525;0.555398;0.560762;0.562089;0.565198;0.569583;0.575283;0.573847;0.577212;0.576760;0.583554;0.583620;0.588781;0.589937;0.592390;0.592332;0.601043;0.610591;0.602759;0.607513;0.613885;0.615327;0.616800;0.617516;0.621409;0.624096;0.622268;0.630716;0.630478;0.635896;0.636362;0.637274;0.639921;0.640164;0.642891;0.649068;0.654659;0.650273;0.655719;0.657382;0.661945;0.663101;0.668050;0.665261;0.666816;0.665434;0.674121;0.667958;0.668091;0.677294;0.674824;0.674166;0.673664;0.675116;0.678323;0.674383;0.673019;0.676117;0.679003;0.680643;0.678239;0.678157;0.676826;0.678044;0.678181;0.677537;0.677065;0.678488;0.675569;0.672664;0.678786;0.675713;0.671017;0.670320;0.666335;0.667995;0.667036;0.666092;0.660512;0.662947;0.654215;0.655890;0.660639;0.653016;0.651320;0.653157;0.650370;0.648321;0.647363;0.648890;0.645492;0.641686;0.639992;0.643791;0.644729;0.639513;0.643521;0.639149;0.640777;0.640382;0.641589;0.645421;0.643348;0.642357;0.648111;0.647890;0.651818;0.647724;0.649945;0.652180;0.658698;0.657400;0.661436;0.663151;0.670682;0.666486;0.674903;0.673323;0.679072;0.677500;0.684532;0.693906;0.695113;0.698843;0.701005;0.703629;0.707499;0.709567;0.717609;0.721986;0.722018;0.729816;0.730684;0.730114;0.734869;0.741217;0.738038;0.740743;0.738938;0.744466;0.744290;0.746624;0.746542;0.738701;0.746197;0.744230;0.743719;0.741252;0.738931;0.736324;0.735896;0.731080;0.734034;0.727837;0.721579;0.722339;0.713841;0.712772;0.705587;0.699362;0.696745;0.693237;0.689564;0.679896;0.672244;0.673107;0.660537;0.658130;0.654938;0.644224;0.644651;0.636123;0.627951;0.626440;0.615462;0.616258;0.604445;0.598717;0.594821;0.590686;0.587094;0.580901;0.576705;0.575404;0.571138;0.564713
0.532733;0.532844;0.533374;0.534515;0.535017;0.538844;0.542664;0.544606;0.548765;0.550386;0.560068;0.560014;0.562158;0.561704;0.563234;0.571622;0.575364;0.572666;0.585769;0.578643;0.587460;0.595520;0.599773;0.600085;0.607472;0.608787;0.611338;0.619420;0.624090;0.625463;0.628804;0.629902;0.641528;0.645237;0.649287;0.657762;0.669226;0.666803;0.678242;0.677945;0.686414;0.693118;0.697565;0.703331;0.707783;0.708677;0.713794;0.719466;0.731165;0.741727;0.742387;0.749753;0.756026;0.761031;0.767574;0.771120;0.773742;0.780467;0.786941;0.795958;0.800028;0.802484;0.806462;0.811637;0.817392;0.819835;0.820462;0.824886;0.830031;0.837479;0.832247;0.832882;0.835879;0.841925;0.835597;0.840053;0.839018;0.841780;0.839711;0.837306;0.834728;0.831415;0.831961;0.827527;0.830653;0.826465;0.824884;0.810714;0.805563;0.805630;0.800869;0.791963;0.790265;0.777592;0.771839;0.767645;0.760524;0.754867;0.740575;0.742731;0.736237;0.728557;0.721759;0.712278;0.702567;0.700172;0.689235;0.678036;0.678233;0.667367;0.663324;0.660108;0.647182;0.640605;0.636367;0.639102;0.631270;0.624766;0.618983;0.615011;0.611316;0.609579;0.608812;0.602123;0.601027;0.598266;0.595470;0.587252;0.592128;0.594345;0.585865;0.592009;0.586161;0.585087;0.587133;0.591293;0.586150;0.587058;0.585714;0.584874;0.589372;0.588516;0.588273;0.591470;0.589406;0.588527;0.592970;0.592150;0.591199;0.593890;0.590946;0.593066;0.591809;0.592129;0.595668;0.597923;0.597805;0.595136;0.593291;0.600852;0.597641;0.593321;0.599145;0.597964;0.593530;0.595685;0.591043;0.593991;0.589700;0.586343;0.584812;0.585071;0.579141;0.581327;0.576914;0.579498;0.573291;0.571484;0.569947;0.567781;0.567666;0.566991;0.564877;0.559108;0.556245;0.556872;0.552887;0.549516;0.553982;0.546391;0.543403;0.540186;0.545666;0.533957;0.540737;0.531009;0.534346;0.533862;0.530253;0.529035
0.522823;0.522115;0.524271;0.525832;0.528544;0.529295;0.529095;0.536439;0.538335;0.540467;0.539203;0.538251;0.541119;0.549511;0.545001;0.549847;0.553983;0.549704;0.553800;0.557507;0.557256;0.562880;0.561172;0.567084;0.573626;0.570141;0.570490;0.574889;0.577357;0.580717;0.585293;0.582765;0.588993;0.588509;0.595798;0.593961;0.600376;0.598769;0.602753;0.606633;0.608816;0.607874;0.609220;0.608247;0.616549;0.614706;0.620352;0.622671;0.625318;0.623633;0.624781;0.627820;0.629231;0.630636;0.637647;0.640221;0.634276;0.639304;0.644941;0.643303;0.645683;0.644278;0.647931;0.650083;0.655435;0.655345;0.657937;0.657206;0.658777;0.660986;0.666212;0.670782;0.662764;0.670590;0.667215;0.674112;0.677396;0.679699;0.676127;0.680263;0.680352;0.681589;0.689835;0.689414;0.690279;0.691522;0.695069;0.696142;0.694702;0.700570;0.697670;0.705737;0.705832;0.703724;0.708207;0.709938;0.711666;0.712953;0.713390;0.714630;0.715574;0.721448;0.723794;0.718539;0.724515;0.724307;0.725445;0.725856;0.728663;0.728973;0.732141;0.734239;0.731811;0.735477;0.732132;0.736166;0.737635;0.735527;0.735429;0.736497;0.738295;0.736038;0.741555;0.738762;0.741214;0.740579;0.739424;0.737541;0.737914;0.735287;0.741524;0.741763;0.741171;0.735867;0.734881;0.739676;0.739322;0.733498;0.735685;0.736242;0.731876;0.730638;0.727800;0.727873;0.725381;0.720676;0.724902;0.725110;0.719272;0.718393;0.713653;0.717103;0.711141;0.706595;0.705793;0.704489;0.700857;0.700612;0.695701;0.695511;0.692085;0.686013;0.680196;0.676830;0.673529;0.673124;0.666754;0.666393;0.663806;0.654279;0.654420;0.650609;0.645697;0.636844;0.639579;0.632506;0.629689;0.622987;0.621100;0.613987;0.608884;0.605456;0.602683;0.593986;0.591469;0.588122;0.585610;0.584513;0.580221;0.577293;0.573232;0.568778;0.560635;0.558018;0.554604;0.550198;0.550230;0.547373;0.543049;0.536942
0.537547;0.539704;0.545658;0.548211;0.550061;0.554713;0.560954;0.554820;0.566116;0.564161;0.568129;0.576370;0.579514;0.582584;0.587033;0.589762;0.591464;0.592791;0.603349;0.604875;0.609340;0.609174;0.614945;0.617917;0.618783;0.626383;0.630288;0.632044;0.638009;0.640596;0.644149;0.639770;0.645220;0.647397;0.651707;0.652572;0.654264;0.658523;0.659885;0.660467;0.659779;0.663001;0.667886;0.665729;0.662741;0.667193;0.663858;0.667972;0.669573;0.669092;0.664406;0.667238;0.666378;0.664385;0.665292;0.660210;0.665001;0.665221;0.667992;0.663591;0.661580;0.660604;0.660331;0.658143;0.659872;0.654829;0.655058;0.658714;0.657933;0.663609;0.656639;0.661010;0.657832;0.661515;0.660077;0.664518;0.668079;0.661248;0.664458;0.668323;0.669646;0.677512;0.672890;0.673322;0.676267;0.677655;0.688213;0.689432;0.685836;0.695630;0.693332;0.696892;0.704142;0.706224;0.708147;0.712297;0.718838;0.721346;0.728466;0.729537;0.735660;0.729383;0.737780;0.740449;0.745621;0.745795;0.750999;0.747934;0.755022;0.757975;0.761494;0.762206;0.764451;0.771996;0.775022;0.771818;0.773640;0.772662;0.774377;0.774221;0.771929;0.771930;0.772289;0.770098;0.767397;0.768984;0.769022;0.762723;0.759866;0.757101;0.758964;0.755019;0.749420;0.739269;0.746848;0.735926;0.735588;0.731478;0.720159;0.721523;0.717392;0.715369;0.705476;0.707833;0.700186;0.692525;0.690479;0.688400;0.683205;0.678263;0.671802;0.671642;0.660301;0.656733;0.652481;0.644083;0.643063;0.642730;0.633030;0.630749;0.624602;0.621898;0.613048;0.613639;0.610153;0.605563;0.605501;0.597443;0.591668;0.590060;0.586030;0.579696;0.577133;0.573624;0.576258;0.568400;0.565297;0.561653;0.563675;0.566908;0.558730;0.554766;0.556615;0.550776;0.547070;0.545654;0.544166;0.541300;0.537140;0.538732;0.538702;0.533835;0.530675;0.526124;0.528627;0.525483;0.525327;0.523537;0.518685;0.521675
0.521125;0.525046;0.523838;0.524342;0.523661;0.528587;0.530044;0.532662;0.532256;0.528897;0.536191;0.532153;0.531969;0.540506;0.541870;0.546171;0.543518;0.544832;0.545471;0.543981;0.554186;0.549800;0.558780;0.555566;0.560091;0.554909;0.568383;0.559069;0.557123;0.568302;0.562387;0.567747;0.563571;0.567991;0.564056;0.562469;0.563989;0.572762;0.571259;0.571491;0.569013;0.573045;0.572378;0.571148;0.572724;0.572405;0.571200;0.569362;0.571189;0.569255;0.567798;0.566992;0.567385;0.562720;0.561678;0.561168;0.555782;0.562495;0.560608;0.554146;0.554049;0.555593;0.558047;0.555458;0.549462;0.551265;0.552560;0.546880;0.548424;0.548337;0.549967;0.546301;0.550927;0.543857;0.545162;0.542461;0.547252;0.538970;0.542313;0.543752;0.545938;0.545078;0.540999;0.547553;0.545543;0.545284;0.546527;0.548944;0.549992;0.551428;0.558650;0.553353;0.554354;0.561331;0.556983;0.563467;0.564556;0.563762;0.570695;0.571561;0.574498;0.579795;0.579787;0.590333;0.593652;0.591813;0.594588;0.605452;0.606344;0.610592;0.617513;0.614774;0.624609;0.628288;0.635295;0.640897;0.646369;0.652165;0.656716;0.667978;0.668760;0.680503;0.684550;0.691699;0.696104;0.704675;0.712408;0.720418;0.735672;0.735783;0.742220;0.752446;0.762871;0.764884;0.770949;0.777839;0.787649;0.791953;0.800630;0.808227;0.814556;0.819083;0.829695;0.834147;0.842702;0.844916;0.850952;0.860822;0.861379;0.863977;0.871809;0.877816;0.873550;0.882095;0.878285;0.884143;0.885082;0.883428;0.885605;0.882157;0.877147;0.878904;0.872975;0.871911;0.867526;0.868112;0.860639;0.857558;0.848471;0.839967;0.842159;0.832677;0.823527;0.819779;0.806126;0.799631;0.793178;0.784844;0.772799;0.767457;0.758077;0.752657;0.741455;0.729026;0.721164;0.717828;0.703720;0.698237;0.686030;0.681306;0.669693;0.663312;0.656229;0.645541;0.634397;0.629726;0.623922;0.615896;0.607154;0.603920
0.527833;0.529220;0.529738;0.535661;0.540276;0.537268;0.540521;0.543034;0.549624;0.551727;0.555233;0.549724;0.561770;0.564540;0.571753;0.567533;0.574038;0.577653;0.579796;0.586802;0.586735;0.593998;0.596737;0.601589;0.605096;0.614555;0.614578;0.613363;0.622271;0.630378;0.637832;0.637784;0.643841;0.649353;0.653722;0.665008;0.666920;0.672279;0.680312;0.684227;0.695289;0.697108;0.703368;0.707871;0.720566;0.725279;0.731049;0.735334;0.740335;0.749548;0.757072;0.763533;0.773439;0.779168;0.778725;0.790783;0.793188;0.801384;0.811355;0.814880;0.819619;0.823528;0.827928;0.834360;0.842043;0.849089;0.846736;0.854350;0.854830;0.866644;0.864658;0.869768;0.866705;0.871506;0.876080;0.876269;0.870961;0.873856;0.872479;0.864516;0.871204;0.868701;0.865122;0.865617;0.857578;0.856106;0.850806;0.850612;0.840441;0.839946;0.834991;0.826818;0.820866;0.811948;0.809441;0.794656;0.789899;0.783242;0.776932;0.772635;0.758188;0.754978;0.745114;0.736959;0.727473;0.719601;0.711547;0.707544;0.697450;0.692122;0.682924;0.672640;0.666681;0.658331;0.654548;0.646551;0.641819;0.635063;0.633747;0.621562;0.620785;0.612026;0.608782;0.606254;0.598253;0.595873;0.593382;0.587024;0.585309;0.583826;0.578532;0.577299;0.574542;0.571867;0.574728;0.568882;0.565013;0.574811;0.565781;0.565956;0.563011;0.562328;0.561583;0.563991;0.564013;0.559044;0.561230;0.563071;0.564819;0.561061;0.562368;0.559343;0.556820;0.559937;0.561858;0.560633;0.559026;0.556954;0.560575;0.558344;0.556131;0.555637;0.555849;0.556863;0.553923;0.552554;0.551200;0.549173;0.551612;0.552309;0.554598;0.545471;0.544825;0.547361;0.547956;0.543358;0.544457;0.543926;0.542063;0.538691;0.534197;0.540072;0.535992;0.532270;0.533599;0.530912;0.529458;0.534292;0.528203;0.528657;0.524972;0.525219;0.519198;0.522311;0.521499;0.517079;0.522183;0.514343;0.517125;0.516641
0.510022;0.514400;0.510028;0.512433;0.511949;0.512643;0.516146;0.516386;0.519719;0.517017;0.519954;0.524939;0.520410;0.528090;0.524662;0.527650;0.527701;0.527132;0.528827;0.534408;0.532696;0.539162;0.536428;0.538588;0.543271;0.547428;0.545520;0.554903;0.554034;0.555171;0.555879;0.556193;0.559462;0.567142;0.563195;0.568360;0.569100;0.572319;0.579181;0.578725;0.583723;0.587628;0.586667;0.592371;0.597187;0.604326;0.602977;0.612681;0.612312;0.616734;0.619442;0.620959;0.624998;0.629487;0.631289;0.641060;0.643115;0.651709;0.653382;0.655657;0.661067;0.662829;0.665091;0.671274;0.675445;0.676450;0.680699;0.682051;0.684799;0.687116;0.693237;0.690798;0.695247;0.696810;0.700529;0.701556;0.700150;0.700388;0.707184;0.707490;0.704519;0.707000;0.703711;0.702546;0.703982;0.701112;0.703399;0.701001;0.700467;0.700551;0.701329;0.698371;0.697333;0.702745;0.698909;0.695526;0.691639;0.688824;0.683971;0.683448;0.684540;0.681881;0.679014;0.679955;0.674246;0.674453;0.675095;0.672261;0.669678;0.669105;0.661428;0.669144;0.666151;0.667629;0.665218;0.666322;0.662615;0.669210;0.666422;0.663569;0.662593;0.668142;0.671104;0.667562;0.671790;0.668185;0.676622;0.677472;0.681022;0.682066;0.681044;0.686931;0.692113;0.692195;0.701940;0.700326;0.703649;0.702902;0.710937;0.713580;0.718850;0.719642;0.721762;0.727039;0.725425;0.726885;0.733898;0.733695;0.735546;0.742078;0.740858;0.743898;0.744442;0.739490;0.740378;0.745300;0.742807;0.742701;0.741166;0.743756;0.741360;0.736144;0.733083;0.739906;0.727640;0.730231;0.721089;0.723512;0.720695;0.714557;0.711782;0.708316;0.705908;0.698154;0.696698;0.686768;0.682264;0.679474;0.672463;0.667024;0.658737;0.655497;0.649194;0.644212;0.639662;0.626006;0.623581;0.619362;0.612140;0.608304;0.602629;0.598618;0.592995;0.588077;0.583837;0.574921;0.569699;0.568456;0.563604;0.562063
0.524617;0.526628;0.523586;0.524378;0.523687;0.528328;0.527889;0.530950;0.531947;0.533640;0.537778;0.538243;0.540672;0.543211;0.547004;0.551782;0.545509;0.555815;0.552965;0.555316;0.553694;0.556067;0.552160;0.561144;0.562461;0.565719;0.564666;0.570619;0.568169;0.569203;0.569439;0.574005;0.575306;0.574306;0.575409;0.578133;0.579829;0.578512;0.583869;0.582737;0.579732;0.582441;0.581817;0.581669;0.579587;0.579457;0.586533;0.582689;0.584165;0.581040;0.586335;0.577339;0.582392;0.583516;0.581529;0.581109;0.590302;0.581686;0.587570;0.584840;0.585147;0.587837;0.586066;0.590410;0.584547;0.590810;0.594892;0.593608;0.591459;0.598248;0.601888;0.602140;0.604223;0.611256;0.613059;0.616867;0.621948;0.626848;0.628655;0.637496;0.641709;0.648387;0.651743;0.658041;0.660170;0.675632;0.679169;0.685902;0.692476;0.701265;0.715995;0.724080;0.725908;0.736393;0.744756;0.755275;0.763278;0.765647;0.780091;0.785163;0.801824;0.805012;0.812145;0.819318;0.831507;0.833123;0.843029;0.853097;0.856674;0.864310;0.867003;0.870934;0.879926;0.881865;0.888789;0.890364;0.891380;0.895308;0.892167;0.895886;0.897490;0.895603;0.899157;0.893448;0.894549;0.890506;0.883174;0.882995;0.878578;0.877978;0.871321;0.865178;0.858747;0.854660;0.846187;0.842349;0.836943;0.829249;0.814383;0.809145;0.802363;0.793157;0.786176;0.778679;0.765506;0.760174;0.756480;0.745812;0.735464;0.722145;0.719019;0.706151;0.701995;0.696036;0.686242;0.674900;0.671733;0.664679;0.652862;0.648560;0.639167;0.633200;0.632903;0.625661;0.619942;0.614724;0.601277;0.602112;0.597529;0.594568;0.588735;0.582275;0.584346;0.575055;0.571827;0.566370;0.563485;0.563654;0.559712;0.556162;0.551314;0.545377;0.553287;0.542609;0.540910;0.537482;0.537319;0.535769;0.530922;0.533376;0.530075;0.523279;0.529172;0.530109;0.525296;0.525485;0.524831;0.520762;0.520211;0.519861
0.531902;0.534693;0.535049;0.540866;0.544508;0.545479;0.548545;0.551685;0.554662;0.559442;0.554967;0.561498;0.564229;0.565737;0.565910;0.572913;0.573433;0.576062;0.579748;0.592092;0.584927;0.591511;0.595337;0.593625;0.601518;0.603531;0.601845;0.607909;0.613021;0.614842;0.616574;0.614773;0.617441;0.619986;0.623524;0.624085;0.626748;0.630385;0.629872;0.630440;0.630737;0.634245;0.631987;0.631318;0.630334;0.635964;0.631072;0.630429;0.633081;0.629547;0.628764;0.630128;0.631834;0.627118;0.628288;0.620593;0.623424;0.618778;0.622720;0.615901;0.616445;0.613677;0.614009;0.607472;0.610137;0.612357;0.611143;0.604214;0.606980;0.602713;0.604124;0.600891;0.598903;0.602471;0.595592;0.596961;0.594474;0.589481;0.592963;0.588651;0.591435;0.592338;0.588106;0.594707;0.590354;0.591443;0.589708;0.589636;0.596624;0.593445;0.591949;0.590187;0.596327;0.597241;0.601791;0.601352;0.598992;0.601647;0.602734;0.608045;0.606653;0.611285;0.613870;0.614318;0.617253;0.617637;0.621026;0.619465;0.626539;0.630921;0.634561;0.639628;0.638140;0.645524;0.647174;0.653494;0.654766;0.654896;0.661168;0.665322;0.671348;0.677121;0.674757;0.681195;0.684711;0.685552;0.696976;0.695894;0.704453;0.704234;0.715843;0.721821;0.721492;0.724463;0.734749;0.737153;0.742550;0.742694;0.749801;0.757560;0.757035;0.759162;0.767567;0.764379;0.771860;0.777607;0.778082;0.777774;0.785446;0.785573;0.783766;0.786522;0.800167;0.794150;0.791872;0.792459;0.795835;0.788252;0.789301;0.790909;0.787941;0.785446;0.782596;0.782548;0.779487;0.772582;0.773080;0.767570;0.762284;0.754495;0.753091;0.750164;0.744035;0.739623;0.731467;0.721960;0.720312;0.714365;0.703047;0.702392;0.691293;0.692023;0.677120;0.670583;0.668777;0.657502;0.647617;0.644219;0.638597;0.632904;0.625191;0.619511;0.613353;0.606189;0.604860;0.600898;0.592183;0.585766;0.578696;0.575295
0.512189;0.513228;0.517754;0.516409;0.519889;0.518715;0.521729;0.522912;0.525735;0.527719;0.524460;0.530930;0.529571;0.530515;0.530025;0.535063;0.537500;0.541223;0.540797;0.545897;0.544347;0.548855;0.548391;0.550353;0.552538;0.553210;0.556563;0.551864;0.561012;0.562345;0.563642;0.568130;0.577006;0.575379;0.573778;0.582947;0.579094;0.578499;0.583824;0.589151;0.596111;0.590487;0.595285;0.595150;0.596494;0.600142;0.600795;0.609004;0.607887;0.613071;0.614257;0.615903;0.617588;0.619982;0.625219;0.627248;0.633139;0.630553;0.636385;0.638017;0.639046;0.642361;0.641615;0.655911;0.654680;0.657723;0.653598;0.663215;0.665054;0.670853;0.672001;0.674931;0.680801;0.681348;0.682745;0.690581;0.696613;0.692475;0.697704;0.707602;0.700734;0.703669;0.716089;0.711126;0.715379;0.723067;0.724052;0.729707;0.727116;0.733007;0.736441;0.743854;0.741225;0.742952;0.749367;0.755070;0.756606;0.757479;0.763449;0.765823;0.768229;0.767372;0.772135;0.773125;0.775235;0.781175;0.779119;0.782595;0.784938;0.787816;0.787374;0.783122;0.787717;0.790001;0.791458;0.792563;0.791705;0.790042;0.792216;0.795385;0.789766;0.790535;0.787407;0.784347;0.788309;0.779489;0.782700;0.777300;0.770277;0.775303;0.771488;0.769503;0.768697;0.761254;0.760762;0.760467;0.753615;0.749627;0.745153;0.741571;0.737002;0.731358;0.728940;0.728650;0.719423;0.716679;0.713076;0.705518;0.707281;0.701356;0.695767;0.690000;0.684318;0.678496;0.679328;0.674542;0.667357;0.663303;0.657042;0.655033;0.652590;0.650386;0.641816;0.641743;0.633732;0.627324;0.624659;0.623213;0.619044;0.617381;0.610192;0.607725;0.606023;0.599312;0.594391;0.595094;0.588168;0.585190;0.577824;0.579003;0.574645;0.576018;0.567465;0.566581;0.563270;0.560714;0.555821;0.555098;0.547577;0.547151;0.543319;0.537141;0.542812;0.535957;0.532795;0.526805;0.532661;0.528954;0.529381;0.526615
0.577950;0.579742;0.585743;0.591615;0.598174;0.602357;0.609379;0.616375;0.620615;0.630878;0.635964;0.637872;0.645633;0.655028;0.657822;0.669460;0.671720;0.686505;0.689716;0.694253;0.702359;0.715368;0.716675;0.722025;0.729777;0.733953;0.738777;0.745556;0.751381;0.757073;0.763358;0.767408;0.774242;0.779568;0.776956;0.785432;0.791330;0.786778;0.791611;0.796446;0.794036;0.797157;0.803741;0.801859;0.802941;0.805819;0.803375;0.804559;0.799672;0.797131;0.796663;0.799816;0.794580;0.790535;0.795742;0.783714;0.780404;0.783061;0.776957;0.773008;0.768500;0.769950;0.764391;0.764953;0.757860;0.749460;0.755251;0.744843;0.738639;0.733872;0.735796;0.733769;0.723667;0.725375;0.717481;0.720051;0.715805;0.715093;0.713973;0.703478;0.703857;0.698291;0.699217;0.692585;0.693208;0.693422;0.688191;0.687807;0.685951;0.680123;0.686546;0.680261;0.685340;0.682544;0.679339;0.678083;0.678263;0.672338;0.678651;0.671564;0.673827;0.670341;0.673203;0.671010;0.671287;0.671607;0.670779;0.668478;0.672856;0.668590;0.667412;0.666588;0.666027;0.668259;0.662143;0.663923;0.665405;0.660162;0.655264;0.661513;0.656771;0.653369;0.654904;0.652751;0.643008;0.647854;0.639705;0.639098;0.633095;0.634893;0.631785;0.628619;0.623437;0.621909;0.615781;0.618402;0.618069;0.608961;0.608261;0.609195;0.599957;0.598573;0.597686;0.588945;0.587619;0.587857;0.584233;0.579967;0.578242;0.574491;0.570843;0.570331;0.559257;0.566237;0.558566;0.555445;0.552281;0.552421;0.546726;0.544492;0.548143;0.540950;0.532649;0.541000;0.538146;0.535757;0.532214;0.528711;0.522593;0.525447;0.518872;0.525298;0.518432;0.519596;0.521659;0.518875;0.514731;0.518211;0.518900;0.515591;0.511262;0.516175;0.510899;0.510426;0.508834;0.506439;0.511834;0.512450;0.509710;0.509915;0.509749;0.510680;0.503774;0.507515;0.506400;0.504296;0.507621;0.507703;0.503510;0.503410
0.505335;0.508048;0.510710;0.508520;0.514736;0.511040;0.513264;0.514239;0.514232;0.513528;0.520691;0.515870;0.524205;0.519789;0.523218;0.524297;0.523800;0.528834;0.529946;0.530338;0.532454;0.534905;0.543788;0.539167;0.549267;0.548107;0.546114;0.553741;0.558839;0.562500;0.564608;0.567876;0.572049;0.575226;0.580531;0.586560;0.593032;0.596921;0.599884;0.604531;0.610887;0.614952;0.619719;0.626302;0.631127;0.640073;0.648662;0.651439;0.663778;0.663158;0.674223;0.676460;0.685962;0.691370;0.699935;0.705550;0.719278;0.721915;0.730588;0.728566;0.737860;0.749943;0.752908;0.763539;0.767810;0.769205;0.775884;0.779362;0.784839;0.793528;0.800165;0.801200;0.807171;0.804609;0.811007;0.809840;0.812737;0.812924;0.819947;0.817295;0.814115;0.814932;0.815300;0.814772;0.810089;0.806964;0.808352;0.812124;0.797016;0.794591;0.792973;0.785642;0.780752;0.785528;0.771274;0.766280;0.763023;0.753005;0.749617;0.742160;0.737534;0.730466;0.725052;0.718677;0.711473;0.708144;0.698047;0.696535;0.688938;0.688395;0.679535;0.671100;0.664858;0.666240;0.659928;0.656940;0.652299;0.651163;0.647796;0.643226;0.642764;0.629487;0.635813;0.632767;0.631503;0.629806;0.631571;0.628030;0.630158;0.628981;0.625733;0.629072;0.628238;0.633277;0.628991;0.636838;0.637131;0.638988;0.634788;0.638820;0.640831;0.642936;0.643951;0.643980;0.646686;0.651450;0.652413;0.652206;0.658575;0.660070;0.652524;0.663467;0.662565;0.666117;0.659054;0.668430;0.660877;0.659637;0.661556;0.661370;0.662393;0.657837;0.660214;0.663963;0.657373;0.653492;0.652152;0.653959;0.650951;0.647283;0.646013;0.639078;0.638416;0.637158;0.631854;0.632510;0.624670;0.622138;0.618281;0.613564;0.612926;0.605145;0.607830;0.597669;0.596732;0.589611;0.583511;0.585850;0.577916;0.571737;0.570356;0.569524;0.562634;0.557511;0.559690;0.556865;0.548497;0.545744;0.545680;0.545723
0.505721;0.510762;0.510274;0.512174;0.509535;0.506625;0.516490;0.511050;0.507131;0.508320;0.516010;0.514030;0.514048;0.511308;0.517036;0.517617;0.519841;0.519291;0.517496;0.523687;0.527942;0.525194;0.523138;0.524540;0.532079;0.533266;0.529910;0.531207;0.538850;0.537763;0.534958;0.533965;0.539816;0.536620;0.543904;0.543207;0.549025;0.546119;0.551117;0.554847;0.553458;0.554406;0.552021;0.558076;0.555114;0.558096;0.566943;0.565150;0.569488;0.569651;0.576018;0.573455;0.578519;0.578228;0.578966;0.582131;0.588943;0.589677;0.593732;0.596006;0.601223;0.603588;0.605412;0.606029;0.609640;0.611566;0.618078;0.617852;0.621078;0.627165;0.628801;0.630530;0.636997;0.633915;0.636328;0.639367;0.640595;0.647549;0.649220;0.656400;0.659090;0.661021;0.663748;0.665437;0.670499;0.668756;0.677370;0.673500;0.677062;0.682257;0.680979;0.683655;0.693568;0.694999;0.698013;0.698543;0.700039;0.705915;0.707423;0.713005;0.711400;0.712868;0.715820;0.721340;0.722303;0.729245;0.725633;0.730335;0.732508;0.737054;0.738319;0.740660;0.746037;0.751832;0.747352;0.753694;0.752658;0.754554;0.760749;0.761599;0.762370;0.766513;0.764265;0.762218;0.772234;0.772016;0.772949;0.775443;0.773417;0.773030;0.775786;0.776718;0.775388;0.777602;0.776736;0.786147;0.783008;0.775024;0.780205;0.778818;0.781881;0.781781;0.782325;0.778548;0.785711;0.780693;0.779481;0.778166;0.779470;0.779569;0.778895;0.773155;0.773220;0.767826;0.772866;0.765874;0.761863;0.761736;0.760975;0.752939;0.746785;0.746692;0.745696;0.741097;0.733449;0.734509;0.728172;0.727385;0.715165;0.712703;0.703898;0.706928;0.704694;0.690647;0.689056;0.686712;0.681638;0.670216;0.666280;0.658798;0.657874;0.647643;0.641910;0.637041;0.631498;0.625227;0.624074;0.616922;0.611585;0.607677;0.597321;0.595468;0.591811;0.583878;0.579334;0.578126;0.572479;0.567410;0.561281;0.561730
0.548464;0.555303;0.553985;0.553828;0.563242;0.570521;0.569514;0.571445;0.575485;0.585216;0.588765;0.590765;0.589529;0.599798;0.603962;0.601484;0.612300;0.620349;0.625507;0.622589;0.626798;0.634763;0.635171;0.640378;0.643990;0.648670;0.652972;0.656428;0.658387;0.663787;0.664464;0.665250;0.669324;0.671295;0.672907;0.677688;0.676262;0.674340;0.679172;0.677823;0.681303;0.682213;0.678210;0.677646;0.683778;0.677478;0.673136;0.676903;0.673618;0.675441;0.677251;0.670822;0.664932;0.669225;0.660151;0.662541;0.666735;0.660225;0.651119;0.654341;0.651026;0.649092;0.645575;0.642606;0.640146;0.634014;0.635625;0.633724;0.631947;0.635300;0.626247;0.628760;0.631142;0.623671;0.620769;0.624308;0.620574;0.623576;0.621763;0.623929;0.623854;0.623710;0.623877;0.626620;0.630402;0.632335;0.631997;0.635822;0.636480;0.641305;0.647356;0.648684;0.653492;0.651139;0.660531;0.664482;0.661774;0.670874;0.675045;0.682899;0.680943;0.685687;0.690969;0.695216;0.697252;0.699981;0.709374;0.707877;0.714519;0.716499;0.720434;0.727981;0.724300;0.733651;0.734900;0.739165;0.736988;0.740239;0.744567;0.741978;0.745713;0.745878;0.745570;0.743850;0.746485;0.743570;0.747642;0.742555;0.745461;0.744498;0.748167;0.743710;0.740456;0.738766;0.736474;0.733765;0.737150;0.728566;0.724427;0.723297;0.720548;0.716061;0.720437;0.715618;0.709598;0.709929;0.705312;0.699061;0.697289;0.695108;0.688533;0.683791;0.682368;0.677632;0.676954;0.670805;0.668455;0.667773;0.659806;0.656756;0.650895;0.652151;0.643553;0.640702;0.637618;0.633641;0.632431;0.625718;0.625618;0.618447;0.611645;0.615440;0.611395;0.605466;0.596090;0.592434;0.590107;0.591864;0.585775;0.582447;0.579376;0.571902;0.570866;0.571593;0.565885;0.566498;0.559077;0.553330;0.554386;0.553745;0.550486;0.548939;0.542253;0.538626;0.540061;0.538933;0.535468;0.533591;0.532295;0.528768
0.520332;0.522028;0.522912;0.524609;0.528114;0.529885;0.534018;0.534650;0.534135;0.536550;0.539609;0.542955;0.546521;0.547716;0.546732;0.552648;0.556280;0.559852;0.557561;0.563171;0.568888;0.570968;0.569085;0.571344;0.573352;0.582049;0.583683;0.585787;0.586371;0.589646;0.592774;0.597738;0.593883;0.601094;0.607771;0.602141;0.609440;0.610601;0.613406;0.611270;0.618559;0.626637;0.624503;0.630026;0.631894;0.637046;0.635701;0.635861;0.640725;0.642003;0.642678;0.648103;0.651160;0.648118;0.656785;0.655707;0.659747;0.670978;0.663529;0.668979;0.671577;0.670774;0.674236;0.681929;0.678786;0.680342;0.682102;0.687660;0.690788;0.689577;0.693629;0.693314;0.695920;0.699932;0.698924;0.702394;0.702522;0.706784;0.710946;0.714364;0.708532;0.716400;0.718146;0.717339;0.720460;0.720750;0.719332;0.724125;0.727218;0.725976;0.725577;0.724930;0.726719;0.729368;0.729554;0.733966;0.730022;0.734267;0.732128;0.737706;0.736366;0.735083;0.735871;0.739875;0.734089;0.741582;0.741303;0.736150;0.734363;0.744487;0.739568;0.745153;0.737066;0.737866;0.740203;0.736505;0.739422;0.738298;0.737713;0.739475;0.735690;0.740784;0.733425;0.728583;0.731743;0.733673;0.730885;0.726127;0.726069;0.729316;0.727315;0.723833;0.722001;0.718064;0.723317;0.719543;0.715356;0.716317;0.712379;0.706673;0.705838;0.701810;0.698828;0.702371;0.698701;0.695561;0.692841;0.689758;0.689262;0.686489;0.678754;0.676851;0.672651;0.673987;0.667181;0.664996;0.663361;0.658757;0.654526;0.651104;0.647501;0.651735;0.644314;0.642376;0.641540;0.640544;0.631200;0.625626;0.628073;0.620745;0.617146;0.615498;0.605266;0.610287;0.602032;0.598725;0.599092;0.591268;0.586015;0.589007;0.582379;0.580704;0.573639;0.570986;0.570769;0.566912;0.565675;0.558100;0.557561;0.554960;0.551903;0.553173;0.546206;0.541693;0.540495;0.535677;0.536848;0.526817;0.529694;0.527918
0.525743;0.528783;0.528572;0.532447;0.536020;0.536707;0.540811;0.545052;0.544528;0.547916;0.547412;0.550817;0.547666;0.557303;0.559647;0.560313;0.559892;0.565274;0.568070;0.572658;0.576166;0.571775;0.584972;0.582978;0.580455;0.582240;0.587288;0.588229;0.590054;0.591854;0.593212;0.597611;0.596864;0.598395;0.594449;0.601907;0.604940;0.604080;0.607027;0.610601;0.605293;0.606640;0.609783;0.607664;0.604379;0.612783;0.606153;0.606159;0.607298;0.609701;0.607165;0.605278;0.605712;0.608312;0.603533;0.601649;0.601825;0.598478;0.598642;0.593798;0.595357;0.596231;0.592048;0.591072;0.591831;0.587122;0.586997;0.584144;0.584508;0.579547;0.578014;0.577973;0.574127;0.574266;0.569258;0.573175;0.565852;0.570219;0.565103;0.568367;0.562197;0.560915;0.555809;0.558469;0.557016;0.557163;0.555071;0.552463;0.556263;0.551634;0.548451;0.552578;0.548706;0.553002;0.550520;0.552661;0.549322;0.551353;0.550964;0.551492;0.555200;0.556766;0.549502;0.557536;0.557821;0.558496;0.560479;0.563365;0.564928;0.568067;0.565970;0.576092;0.577748;0.578266;0.585411;0.591274;0.596714;0.597263;0.604842;0.609723;0.613484;0.625010;0.628371;0.637558;0.641630;0.650140;0.658877;0.667236;0.671303;0.679556;0.685325;0.689972;0.704851;0.711548;0.718426;0.723639;0.739215;0.740113;0.752367;0.764626;0.769987;0.779271;0.784382;0.796860;0.800776;0.809428;0.813732;0.824831;0.826956;0.833838;0.843253;0.842728;0.846994;0.848668;0.849333;0.851905;0.858959;0.855789;0.859248;0.861876;0.858667;0.852686;0.860681;0.851488;0.851496;0.853876;0.847875;0.842888;0.837081;0.830847;0.824006;0.820134;0.810764;0.810022;0.798821;0.795717;0.781595;0.773066;0.766228;0.758059;0.753295;0.745190;0.731114;0.721149;0.718943;0.709184;0.703698;0.691302;0.675768;0.672647;0.662788;0.656868;0.646982;0.638957;0.629096;0.620406;0.617759;0.611702;0.601733;0.592979
0.549156;0.558187;0.558536;0.563482;0.565413;0.570869;0.579114;0.583005;0.580125;0.585992;0.593022;0.600434;0.603063;0.603745;0.615992;0.620290;0.622978;0.629149;0.634019;0.641018;0.647217;0.655225;0.658767;0.664111;0.665764;0.673334;0.675290;0.688396;0.687143;0.695692;0.702512;0.706777;0.711400;0.718412;0.723326;0.736882;0.730928;0.739306;0.741441;0.745290;0.751294;0.755974;0.756804;0.758170;0.770330;0.769839;0.773795;0.778333;0.776765;0.783562;0.784898;0.788775;0.789916;0.795347;0.792472;0.800183;0.805734;0.808826;0.803365;0.811426;0.810738;0.810342;0.812765;0.813913;0.817264;0.816471;0.819125;0.817679;0.819482;0.824696;0.819739;0.819050;0.818351;0.819125;0.817898;0.812544;0.814742;0.812470;0.811145;0.811866;0.803428;0.803236;0.798724;0.796193;0.797997;0.791021;0.785458;0.785737;0.779751;0.776858;0.774404;0.767730;0.763888;0.760389;0.754274;0.749999;0.746671;0.738033;0.731689;0.722400;0.718491;0.716909;0.707659;0.707213;0.702463;0.697043;0.689361;0.687980;0.680034;0.676003;0.673646;0.664845;0.654896;0.654938;0.651799;0.649694;0.642645;0.638887;0.633087;0.630791;0.626640;0.618935;0.615741;0.616253;0.611697;0.605788;0.601643;0.603204;0.600399;0.594294;0.591022;0.590110;0.585002;0.580661;0.582024;0.574640;0.573520;0.574883;0.573640;0.571954;0.565638;0.566103;0.561788;0.561979;0.565716;0.561684;0.554360;0.564593;0.555244;0.554610;0.552626;0.551693;0.554199;0.546967;0.548196;0.547515;0.545730;0.546377;0.543598;0.544237;0.544922;0.543395;0.539372;0.539307;0.540998;0.535105;0.537458;0.538242;0.533750;0.536012;0.532572;0.529543;0.529083;0.530067;0.532316;0.529840;0.526195;0.522210;0.519969;0.527887;0.528958;0.526065;0.521016;0.521090;0.521901;0.520306;0.520814;0.519105;0.518585;0.513027;0.513945;0.515710;0.513729;0.509902;0.515262;0.513736;0.511313;0.511990;0.515848;0.510499
0.561271;0.565638;0.572926;0.579917;0.576335;0.582482;0.589160;0.595844;0.605167;0.609202;0.612270;0.617764;0.621507;0.628606;0.636461;0.638574;0.645753;0.649444;0.656799;0.660635;0.665239;0.672330;0.679944;0.687186;0.695441;0.699367;0.701310;0.709662;0.713679;0.718887;0.723108;0.725589;0.731203;0.737179;0.741598;0.745988;0.748150;0.752220;0.755120;0.760531;0.759367;0.754406;0.766764;0.766644;0.765003;0.765948;0.770570;0.772347;0.770020;0.771516;0.774710;0.772822;0.769877;0.772298;0.769737;0.768057;0.770009;0.761694;0.767238;0.766557;0.765613;0.759421;0.759794;0.755294;0.749861;0.753199;0.749026;0.745780;0.749086;0.747852;0.743301;0.744634;0.733239;0.732898;0.733606;0.727741;0.722183;0.724924;0.722128;0.719438;0.718821;0.712389;0.714022;0.716016;0.707239;0.701535;0.703217;0.705045;0.699137;0.696101;0.693615;0.690819;0.686457;0.680996;0.681507;0.679607;0.678428;0.673893;0.674253;0.672714;0.666357;0.664792;0.664364;0.659690;0.659748;0.655883;0.653632;0.649188;0.651478;0.644899;0.647338;0.640111;0.645748;0.641510;0.644313;0.634634;0.638850;0.629848;0.632174;0.636023;0.632630;0.624563;0.626900;0.629075;0.626604;0.622109;0.617938;0.620780;0.618602;0.615041;0.619623;0.611442;0.615881;0.613673;0.610103;0.609575;0.611111;0.613598;0.610336;0.607612;0.603258;0.607781;0.602120;0.607446;0.604465;0.599335;0.598123;0.601204;0.598911;0.598315;0.590138;0.600791;0.588618;0.593625;0.594432;0.590625;0.587448;0.584042;0.582621;0.584612;0.584026;0.580334;0.579145;0.570686;0.571240;0.572082;0.575100;0.576854;0.570353;0.567182;0.564322;0.560522;0.560045;0.556000;0.555085;0.556831;0.548165;0.549368;0.550021;0.544507;0.545086;0.542518;0.542120;0.538378;0.536053;0.537371;0.534659;0.531488;0.529290;0.525563;0.525049;0.527530;0.527376;0.524921;0.517537;0.521032;0.516155;0.517687;0.514506;0.514260
0.541942;0.549760;0.548973;0.550045;0.552029;0.560367;0.565708;0.560962;0.574726;0.576001;0.576766;0.581393;0.583569;0.585125;0.592351;0.592711;0.602130;0.605463;0.606466;0.613441;0.612812;0.623786;0.625501;0.627457;0.624592;0.634831;0.632296;0.641005;0.641152;0.647038;0.646766;0.653670;0.651457;0.655675;0.659195;0.661525;0.660748;0.664874;0.667288;0.664242;0.666320;0.664138;0.660620;0.661096;0.660603;0.660471;0.661672;0.661273;0.657298;0.658316;0.654372;0.653210;0.654211;0.653550;0.650050;0.647306;0.645116;0.645129;0.640394;0.636936;0.635400;0.633674;0.634927;0.627957;0.625002;0.628677;0.627776;0.624998;0.619289;0.619067;0.618290;0.616015;0.617954;0.614961;0.611298;0.617760;0.613492;0.614948;0.614604;0.613516;0.617768;0.614391;0.619843;0.621787;0.624697;0.625984;0.632198;0.630035;0.634603;0.634853;0.638150;0.642087;0.646619;0.653657;0.654688;0.657773;0.664960;0.661162;0.674579;0.675187;0.678096;0.679442;0.687168;0.695442;0.693199;0.702459;0.707983;0.711891;0.708116;0.717981;0.720360;0.725097;0.728418;0.733780;0.735390;0.734411;0.739056;0.746855;0.743419;0.748126;0.750261;0.751031;0.749061;0.753106;0.756494;0.752881;0.752787;0.755772;0.758047;0.752911;0.753590;0.754052;0.753688;0.752780;0.751144;0.752848;0.751162;0.752457;0.749817;0.746866;0.746337;0.741039;0.738994;0.739740;0.736400;0.733825;0.731614;0.732112;0.723962;0.725583;0.722763;0.714132;0.712307;0.712169;0.703661;0.704556;0.703207;0.695575;0.691644;0.683223;0.685211;0.683844;0.676564;0.677767;0.667228;0.664657;0.664008;0.660404;0.658475;0.645980;0.644217;0.647453;0.639166;0.635137;0.631484;0.622679;0.620077;0.615351;0.612908;0.611585;0.605405;0.604170;0.596655;0.597016;0.589625;0.583323;0.582509;0.574815;0.574201;0.571043;0.569714;0.561474;0.564351;0.560107;0.556634;0.554746;0.549699;0.550254;0.546037;0.544036
