0.000000000000000000e+00,0.000000000000000000e+00,0.000000000000000000e+00,0.000000000000000000e+00,-2.118373103439807892e-02,-2.166242338716983795e-02,-2.139615453779697418e-02,-2.085153758525848389e-02,-1.870428584516048431e-02,-1.500587258487939835e-02,-1.043354813009500504e-02,-5.411475431174039841e-03,-3.072130784858018160e-04,3.819166682660579681e-03,6.350847426801919937e-03,7.599655073136091232e-03,7.832241244614124298e-03,7.620178628712892532e-03,7.168421056121587753e-03,6.426181644201278687e-03,5.458545405417680740e-03,4.260943736881017685e-03,3.162264125421643257e-03,2.252075355499982834e-03,1.428269315510988235e-03,7.470588316209614277e-04,-3.372550418134778738e-05,-6.549999816343188286e-04,-9.357142844237387180e-04,-1.049591926857829094e-03,-1.067142817191779613e-03,-1.185624976642429829e-03,-4.285106260795146227e-04,2.497872337698936462e-04,1.200425554998219013e-03,3.119333414360880852e-03,6.166000384837388992e-03,1.221181824803352356e-02,2.118204534053802490e-02,3.291090950369834900e-02,4.633371904492378235e-02,5.979930236935615540e-02,7.243143022060394287e-02,8.411642909049987793e-02,9.516512602567672729e-02,1.056956127285957336e-01,1.155112162232398987e-01,1.215879991650581360e-01,1.253059059381484985e-01,1.243123114109039307e-01,1.198933348059654236e-01,1.129247397184371948e-01,1.054484173655509949e-01,9.912026673555374146e-02,9.428405761718750000e-02,9.079702943563461304e-02,8.850783854722976685e-02,8.715499937534332275e-02,8.658143132925033569e-02,8.596166968345642090e-02,8.494000136852264404e-02,8.373647183179855347e-02,8.236647397279739380e-02,8.199088275432586670e-02,8.250294625759124756e-02,8.463272452354431152e-02,8.877030014991760254e-02,9.449374675750732422e-02,1.020666658878326416e-01,1.118175014853477478e-01,1.243754848837852478e-01,1.389018744230270386e-01,1.540596783161163330e-01,1.698622554540634155e-01,1.837459951639175415e-01,1.968989968299865723e-01,2.109799981117248535e-01,2.263673394918441772e-01,2.483796477317810059e-01,2.804779410362243652e-01,3.225248456001281738e-01,3.729958534240722656e-01,4.320771396160125732e-01,4.915703535079956055e-01,5.444592833518981934e-01,5.895522236824035645e-01,6.217414140701293945e-01,6.450996398925781250e-01,6.594200134277343750e-01,6.677510738372802734e-01,6.721853613853454590e-01,6.735622286796569824e-01,6.726030707359313965e-01,6.666400432586669922e-01,6.605796217918395996e-01,6.515427827835083008e-01,6.431035995483398438e-01,6.333332061767578125e-01,6.248283982276916504e-01,6.159008145332336426e-01,6.069499850273132324e-01,6.015225052833557129e-01,5.958183407783508301e-01,5.910758376121520996e-01,5.879770517349243164e-01,5.854982733726501465e-01,5.826852321624755859e-01,5.795000195503234863e-01,5.747668147087097168e-01,5.688552260398864746e-01,5.611236095428466797e-01,5.520508885383605957e-01,5.425845384597778320e-01,5.315372943878173828e-01,5.187968015670776367e-01,5.057342648506164551e-01,4.949790537357330322e-01,4.846704602241516113e-01,4.736209511756896973e-01,4.642985761165618896e-01,4.563899934291839600e-01,4.497699737548828125e-01,0.000000000000000000e+00,0.000000000000000000e+00,0.000000000000000000e+00
0.000000000000000000e+00,0.000000000000000000e+00,0.000000000000000000e+00,0.000000000000000000e+00,1.594044640660285950e-02,1.528348494321107864e-02,1.507184654474258423e-02,1.545538473874330521e-02,1.720000058412551880e-02,2.027825452387332916e-02,2.461742050945758820e-02,2.918229438364505768e-02,3.363606706261634827e-02,3.713583201169967651e-02,3.919322043657302856e-02,4.023603349924087524e-02,4.040344804525375366e-02,3.976893052458763123e-02,3.924736753106117249e-02,3.813999891281127930e-02,3.693036362528800964e-02,3.523490577936172485e-02,3.391773626208305359e-02,3.266264125704765320e-02,3.164307773113250732e-02,3.055058792233467102e-02,2.935568615794181824e-02,2.837000042200088501e-02,2.771285548806190491e-02,2.713469415903091431e-02,2.657285705208778381e-02,2.632208354771137238e-02,2.660489454865455627e-02,2.676978707313537598e-02,2.696595713496208191e-02,2.874800004065036774e-02,3.119733370840549469e-02,3.625386580824851990e-02,4.461022838950157166e-02,5.545818060636520386e-02,6.826604902744293213e-02,8.111628144979476929e-02,9.322285652160644531e-02,1.045285686850547791e-01,1.152914613485336304e-01,1.254678070545196533e-01,1.348951160907745361e-01,1.406049877405166626e-01,1.437723189592361450e-01,1.422071754932403564e-01,1.373312920331954956e-01,1.300210505723953247e-01,1.222663149237632751e-01,1.154437810182571411e-01,1.104170307517051697e-01,1.066608130931854248e-01,1.039000004529953003e-01,1.023550033569335938e-01,1.014457195997238159e-01,1.001941636204719543e-01,9.934999793767929077e-02,9.769706428050994873e-02,9.610000252723693848e-02,9.556117653846740723e-02,9.585940837860107422e-02,9.753939509391784668e-02,1.012418195605278015e-01,1.068062484264373779e-01,1.141733378171920776e-01,1.237024962902069092e-01,1.359977424144744873e-01,1.504262536764144897e-01,1.656329035758972168e-01,1.810393631458282471e-01,1.956320106983184814e-01,2.086749970912933350e-01,2.226980030536651611e-01,2.384486645460128784e-01,2.610796689987182617e-01,2.943682968616485596e-01,3.382551670074462891e-01,3.918124139308929443e-01,4.550964236259460449e-01,5.202585458755493164e-01,5.783332586288452148e-01,6.296166777610778809e-01,6.657114028930664062e-01,6.923196315765380859e-01,7.085099816322326660e-01,7.180129289627075195e-01,7.235469222068786621e-01,7.259933352470397949e-01,7.252177000045776367e-01,7.181268334388732910e-01,7.118268013000488281e-01,7.017563581466674805e-01,6.916959881782531738e-01,6.807304024696350098e-01,6.715456247329711914e-01,6.618033051490783691e-01,6.518066525459289551e-01,6.449124813079833984e-01,6.389133334159851074e-01,6.340950131416320801e-01,6.298691630363464355e-01,6.266738772392272949e-01,6.233021616935729980e-01,6.198565363883972168e-01,6.153904795646667480e-01,6.087908744812011719e-01,6.002281904220581055e-01,5.901663899421691895e-01,5.782536268234252930e-01,5.657754540443420410e-01,5.520250201225280762e-01,5.378899574279785156e-01,5.255428552627563477e-01,5.134590864181518555e-01,5.018600225448608398e-01,4.916285574436187744e-01,4.816266596317291260e-01,4.743199944496154785e-01,0.000000000000000000e+00,0.000000000000000000e+00,0.000000000000000000e+00
0.000000000000000000e+00,0.000000000000000000e+00,0.000000000000000000e+00,0.000000000000000000e+00,-1.029074657708406448e-02,-1.050515193492174149e-02,-1.038338430225849152e-02,-1.001000031828880310e-02,-8.081428706645965576e-03,-5.200476385653018951e-03,-1.251935493201017380e-03,2.990983659401535988e-03,7.376557681709527969e-03,1.108416728675365448e-02,1.349576283246278763e-02,1.471258606761693954e-02,1.496551744639873505e-02,1.465107128024101257e-02,1.421421114355325699e-02,1.334127318114042282e-02,1.246181875467300415e-02,1.137169823050498962e-02,1.049943361431360245e-02,9.812640957534313202e-03,9.194422513246536255e-03,8.271176367998123169e-03,7.606862578541040421e-03,6.895000115036964417e-03,6.524285767227411270e-03,6.428571417927742004e-03,6.358571350574493408e-03,6.249791476875543594e-03,6.926382891833782196e-03,7.406808435916900635e-03,8.262127637863159180e-03,1.010644435882568359e-02,1.278533320873975754e-02,1.802704669535160065e-02,2.578090876340866089e-02,3.612454608082771301e-02,4.815255478024482727e-02,6.023906916379928589e-02,7.161428779363632202e-02,8.229643106460571289e-02,9.248170256614685059e-02,1.023226827383041382e-01,1.111607328057289124e-01,1.168330013751983643e-01,1.202205121517181396e-01,1.193779483437538147e-01,1.149123087525367737e-01,1.086547374725341797e-01,1.020015776157379150e-01,9.624756872653961182e-02,9.204918891191482544e-02,8.890162408351898193e-02,8.666378259658813477e-02,8.568999916315078735e-02,8.502000570297241211e-02,8.449000120162963867e-02,8.369000256061553955e-02,8.233852684497833252e-02,8.119117468595504761e-02,8.088088035583496094e-02,8.162352442741394043e-02,8.345817774534225464e-02,8.685878664255142212e-02,9.233249723911285400e-02,9.955333173274993896e-02,1.086225062608718872e-01,1.202416121959686279e-01,1.335456222295761108e-01,1.483719348907470703e-01,1.627448350191116333e-01,1.765699982643127441e-01,1.891220062971115112e-01,2.022459954023361206e-01,2.172326743602752686e-01,2.389472424983978271e-01,2.707031071186065674e-01,3.130438029766082764e-01,3.649996817111968994e-01,4.257321357727050781e-01,4.887232184410095215e-01,5.449946522712707520e-01,5.937533378601074219e-01,6.294800043106079102e-01,6.544966697692871094e-01,6.698549985885620117e-01,6.788722276687622070e-01,6.848146319389343262e-01,6.862444281578063965e-01,6.847284436225891113e-01,6.785364151000976562e-01,6.721400022506713867e-01,6.624535918235778809e-01,6.516287922859191895e-01,6.410880088806152344e-01,6.321244239807128906e-01,6.224195957183837891e-01,6.128999590873718262e-01,6.062474846839904785e-01,6.007166504859924316e-01,5.959033370018005371e-01,5.921542048454284668e-01,5.890895724296569824e-01,5.858439207077026367e-01,5.825738906860351562e-01,5.781013965606689453e-01,5.717499852180480957e-01,5.637563467025756836e-01,5.536800026893615723e-01,5.421627163887023926e-01,5.303118228912353516e-01,5.169858932495117188e-01,5.025128722190856934e-01,4.905666708946228027e-01,4.788561761379241943e-01,4.675923883914947510e-01,4.570785760879516602e-01,4.472933411598205566e-01,4.397275149822235107e-01,0.000000000000000000e+00,0.000000000000000000e+00,0.000000000000000000e+00
0.000000000000000000e+00,0.000000000000000000e+00,0.000000000000000000e+00,0.000000000000000000e+00,3.616671636700630188e-02,3.567636385560035706e-02,3.577569127082824707e-02,3.647769242525100708e-02,3.883571550250053406e-02,4.217476025223731995e-02,4.683403298258781433e-02,5.229114741086959839e-02,5.749507993459701538e-02,6.165083125233650208e-02,6.422796100378036499e-02,6.574534624814987183e-02,6.604569405317306519e-02,6.562714278697967529e-02,6.528157740831375122e-02,6.445018202066421509e-02,6.342127174139022827e-02,6.202622503042221069e-02,6.084151193499565125e-02,5.974339693784713745e-02,5.881980806589126587e-02,5.779705941677093506e-02,5.685666576027870178e-02,5.592999979853630066e-02,5.555428564548492432e-02,5.538816004991531372e-02,5.505000054836273193e-02,5.497625097632408142e-02,5.549212917685508728e-02,5.599170178174972534e-02,5.660744756460189819e-02,5.885622277855873108e-02,6.182933598756790161e-02,6.790341436862945557e-02,7.723477482795715332e-02,8.930999785661697388e-02,1.035195365548133850e-01,1.180739551782608032e-01,1.313342899084091187e-01,1.439192891120910645e-01,1.560775637626647949e-01,1.675819456577301025e-01,1.783878058195114136e-01,1.845780014991760254e-01,1.879151314496994019e-01,1.867871880531311035e-01,1.815528273582458496e-01,1.741263121366500854e-01,1.660718321800231934e-01,1.590262204408645630e-01,1.539570242166519165e-01,1.500326991081237793e-01,1.474624425172805786e-01,1.461775004863739014e-01,1.454628556966781616e-01,1.444541662931442261e-01,1.435800045728683472e-01,1.420220583677291870e-01,1.403123438358306885e-01,1.400055885314941406e-01,1.405223459005355835e-01,1.426248401403427124e-01,1.467372775077819824e-01,1.529571861028671265e-01,1.609133332967758179e-01,1.714124977588653564e-01,1.848935484886169434e-01,2.001968771219253540e-01,2.168354839086532593e-01,2.336161285638809204e-01,2.490819990634918213e-01,2.633049786090850830e-01,2.782639861106872559e-01,2.949706614017486572e-01,3.189903497695922852e-01,3.539489507675170898e-01,4.000082612037658691e-01,4.552475810050964355e-01,5.213021636009216309e-01,5.868386030197143555e-01,6.455785632133483887e-01,6.959766745567321777e-01,7.330085635185241699e-01,7.592633366584777832e-01,7.756600379943847656e-01,7.847663164138793945e-01,7.901315689086914062e-01,7.920655608177185059e-01,7.917707562446594238e-01,7.844511866569519043e-01,7.788504362106323242e-01,7.680360078811645508e-01,7.574715614318847656e-01,7.471647858619689941e-01,7.386031746864318848e-01,7.281591892242431641e-01,7.175199985504150391e-01,7.114675045013427734e-01,7.058767080307006836e-01,7.007266283035278320e-01,6.962266564369201660e-01,6.934234499931335449e-01,6.901495456695556641e-01,6.870265007019042969e-01,6.814622879028320312e-01,6.749417185783386230e-01,6.666445136070251465e-01,6.558154225349426270e-01,6.438181996345520020e-01,6.317381858825683594e-01,6.178008913993835449e-01,6.032156944274902344e-01,5.900928974151611328e-01,5.785880684852600098e-01,5.669452548027038574e-01,5.564714074134826660e-01,5.464566349983215332e-01,5.382875204086303711e-01,0.000000000000000000e+00,0.000000000000000000e+00,0.000000000000000000e+00
0.000000000000000000e+00,0.000000000000000000e+00,0.000000000000000000e+00,0.000000000000000000e+00,1.394417975097894669e-02,1.316196937114000320e-02,1.303030736744403839e-02,1.340461522340774536e-02,1.487714331597089767e-02,1.758650876581668854e-02,2.138677425682544708e-02,2.534819580614566803e-02,2.956065535545349121e-02,3.285083174705505371e-02,3.483965992927551270e-02,3.595672547817230225e-02,3.620775789022445679e-02,3.562249988317489624e-02,3.515210747718811035e-02,3.434872627258300781e-02,3.332800045609474182e-02,3.187641501426696777e-02,3.097981028258800507e-02,2.986433915793895721e-02,2.905980870127677917e-02,2.824470587074756622e-02,2.726980298757553101e-02,2.658499963581562042e-02,2.604714222252368927e-02,2.580551058053970337e-02,2.553571388125419617e-02,2.518791705369949341e-02,2.577383071184158325e-02,2.627425640821456909e-02,2.689723297953605652e-02,2.822555601596832275e-02,3.081999905407428741e-02,3.562068194150924683e-02,4.325181618332862854e-02,5.323999747633934021e-02,6.497651338577270508e-02,7.688255608081817627e-02,8.775571733713150024e-02,9.795785695314407349e-02,1.077595129609107971e-01,1.170397549867630005e-01,1.254709661006927490e-01,1.305425018072128296e-01,1.335756331682205200e-01,1.326056420803070068e-01,1.285179555416107178e-01,1.221784204244613647e-01,1.153934225440025330e-01,1.094713509082794189e-01,1.051632389426231384e-01,1.017794609069824219e-01,9.932270646095275879e-02,9.801749885082244873e-02,9.725857526063919067e-02,9.658332914113998413e-02,9.545999765396118164e-02,9.416176378726959229e-02,9.283588081598281860e-02,9.240558743476867676e-02,9.279294312000274658e-02,9.445091336965560913e-02,9.808515012264251709e-02,1.033231243491172791e-01,1.099633350968360901e-01,1.187950000166893005e-01,1.297893524169921875e-01,1.424337476491928101e-01,1.565864533185958862e-01,1.706954836845397949e-01,1.837200075387954712e-01,1.956560015678405762e-01,2.082680016756057739e-01,2.224259972572326660e-01,2.429644912481307983e-01,2.727637887001037598e-01,3.120624125003814697e-01,3.603748381137847900e-01,4.177442789077758789e-01,4.762767851352691650e-01,5.290778279304504395e-01,5.744733214378356934e-01,6.077371239662170410e-01,6.320115327835083008e-01,6.468750238418579102e-01,6.559551954269409180e-01,6.607838273048400879e-01,6.622589230537414551e-01,6.619084477424621582e-01,6.561747789382934570e-01,6.500264406204223633e-01,6.413015723228454590e-01,6.323835849761962891e-01,6.226816177368164062e-01,6.142544150352478027e-01,6.044204235076904297e-01,5.950166583061218262e-01,5.882675051689147949e-01,5.831533670425415039e-01,5.787358283996582031e-01,5.752078890800476074e-01,5.717722177505493164e-01,5.687504410743713379e-01,5.662969350814819336e-01,5.615699887275695801e-01,5.553978085517883301e-01,5.476554632186889648e-01,5.386118292808532715e-01,5.290390849113464355e-01,5.182118415832519531e-01,5.048558712005615234e-01,4.924699962139129639e-01,4.820304811000823975e-01,4.717409610748291016e-01,4.618642926216125488e-01,4.525028467178344727e-01,4.442533254623413086e-01,4.382600188255310059e-01,0.000000000000000000e+00,0.000000000000000000e+00,0.000000000000000000e+00
0.000000000000000000e+00,0.000000000000000000e+00,0.000000000000000000e+00,0.000000000000000000e+00,7.490433007478713989e-02,7.386106252670288086e-02,7.330876588821411133e-02,7.355153560638427734e-02,7.463286072015762329e-02,7.763888686895370483e-02,8.146548271179199219e-02,8.643212914466857910e-02,9.124787151813507080e-02,9.455166757106781006e-02,9.634576737880706787e-02,9.709103405475616455e-02,9.719672799110412598e-02,9.702213853597640991e-02,9.640841931104660034e-02,9.515472501516342163e-02,9.358309209346771240e-02,9.272565692663192749e-02,9.112942963838577271e-02,8.988942950963973999e-02,8.884980529546737671e-02,8.771764487028121948e-02,8.673196285963058472e-02,8.588999509811401367e-02,8.509142696857452393e-02,8.461327105760574341e-02,8.424428105354309082e-02,8.437666296958923340e-02,8.461169898509979248e-02,8.499680459499359131e-02,8.570532500743865967e-02,8.764800429344177246e-02,9.062733501195907593e-02,9.654249995946884155e-02,1.058106869459152222e-01,1.169163659214973450e-01,1.301581412553787231e-01,1.444116234779357910e-01,1.575099974870681763e-01,1.690342873334884644e-01,1.803443878889083862e-01,1.911163330078125000e-01,2.009436637163162231e-01,2.070845067501068115e-01,2.107087224721908569e-01,2.101446092128753662e-01,2.052984684705734253e-01,1.980526298284530640e-01,1.896892189979553223e-01,1.824894696474075317e-01,1.774308085441589355e-01,1.735162138938903809e-01,1.709756702184677124e-01,1.692450046539306641e-01,1.681600064039230347e-01,1.671324968338012695e-01,1.658799946308135986e-01,1.646161675453186035e-01,1.633094102144241333e-01,1.627344042062759399e-01,1.629691123962402344e-01,1.645581722259521484e-01,1.683857589960098267e-01,1.741003096103668213e-01,1.816666573286056519e-01,1.909925043582916260e-01,2.038261294364929199e-01,2.182712405920028687e-01,2.335290312767028809e-01,2.490935474634170532e-01,2.636640071868896484e-01,2.772399783134460449e-01,2.909239828586578369e-01,3.063679933547973633e-01,3.281958401203155518e-01,3.588703274726867676e-01,3.989868760108947754e-01,4.485127627849578857e-01,5.074778795242309570e-01,5.677189826965332031e-01,6.214756965637207031e-01,6.677210927009582520e-01,7.007828354835510254e-01,7.235585451126098633e-01,7.378699779510498047e-01,7.464359402656555176e-01,7.514100074768066406e-01,7.522578239440917969e-01,7.532415390014648438e-01,7.455672025680541992e-01,7.394164204597473145e-01,7.313780188560485840e-01,7.212979793548583984e-01,7.122583985328674316e-01,7.037631869316101074e-01,6.946499943733215332e-01,6.855866909027099609e-01,6.799150109291076660e-01,6.744782924652099609e-01,6.699708104133605957e-01,6.661645770072937012e-01,6.624404191970825195e-01,6.596034765243530273e-01,6.571882963180541992e-01,6.521036624908447266e-01,6.466795206069946289e-01,6.394999623298645020e-01,6.299617886543273926e-01,6.196036338806152344e-01,6.085417866706848145e-01,5.963731408119201660e-01,5.839628577232360840e-01,5.734252333641052246e-01,5.622366666793823242e-01,5.522152185440063477e-01,5.426985621452331543e-01,5.346866846084594727e-01,5.287500023841857910e-01,0.000000000000000000e+00,0.000000000000000000e+00,0.000000000000000000e+00
0.000000000000000000e+00,0.000000000000000000e+00,0.000000000000000000e+00,0.000000000000000000e+00,1.868208870291709900e-02,1.831166632473468781e-02,1.853861473500728607e-02,1.953922957181930542e-02,2.160999923944473267e-02,2.527793683111667633e-02,3.018790483474731445e-02,3.594442829489707947e-02,4.157327860593795776e-02,4.569166526198387146e-02,4.804982990026473999e-02,4.932982474565505981e-02,4.975965619087219238e-02,4.971607029438018799e-02,4.930631816387176514e-02,4.824817925691604614e-02,4.699417948722839355e-02,4.618924483656883240e-02,4.486698284745216370e-02,4.384811595082283020e-02,4.286788403987884521e-02,4.201999679207801819e-02,4.124999791383743286e-02,4.052999988198280334e-02,3.995142877101898193e-02,3.973551094532012939e-02,3.933714330196380615e-02,3.971645981073379517e-02,4.030404239892959595e-02,4.067276418209075928e-02,4.188425466418266296e-02,4.361244291067123413e-02,4.670200124382972717e-02,5.274727195501327515e-02,6.230431795120239258e-02,7.396909594535827637e-02,8.773372322320938110e-02,1.021448820829391479e-01,1.155014261603355408e-01,1.277435719966888428e-01,1.394900083541870117e-01,1.507770717144012451e-01,1.607048809528350830e-01,1.671864986419677734e-01,1.708194911479949951e-01,1.699200123548507690e-01,1.651887148618698120e-01,1.581510603427886963e-01,1.503105163574218750e-01,1.434299945831298828e-01,1.387018859386444092e-01,1.350699961185455322e-01,1.326686441898345947e-01,1.314724981784820557e-01,1.304671466350555420e-01,1.296333372592926025e-01,1.284099966287612915e-01,1.273720562458038330e-01,1.260023564100265503e-01,1.258329451084136963e-01,1.261417716741561890e-01,1.277018189430236816e-01,1.317606121301651001e-01,1.374875009059906006e-01,1.450600028038024902e-01,1.550624966621398926e-01,1.677290350198745728e-01,1.824962496757507324e-01,1.978987157344818115e-01,2.137625813484191895e-01,2.283599972724914551e-01,2.419019937515258789e-01,2.557879984378814697e-01,2.709400057792663574e-01,2.925455272197723389e-01,3.235420584678649902e-01,3.642469048500061035e-01,4.142355322837829590e-01,4.738157093524932861e-01,5.347964763641357422e-01,5.886164307594299316e-01,6.362177729606628418e-01,6.705700159072875977e-01,6.936422586441040039e-01,7.071449756622314453e-01,7.162063121795654297e-01,7.216153740882873535e-01,7.230266928672790527e-01,7.222884893417358398e-01,7.164372205734252930e-01,7.085903882980346680e-01,6.999120116233825684e-01,6.906831860542297363e-01,6.810855865478515625e-01,6.727092266082763672e-01,6.636183261871337891e-01,6.555033326148986816e-01,6.488124728202819824e-01,6.432316303253173828e-01,6.388175487518310547e-01,6.351808309555053711e-01,6.323451995849609375e-01,6.297343373298645020e-01,6.268609166145324707e-01,6.223523020744323730e-01,6.170039176940917969e-01,6.091517806053161621e-01,5.994281768798828125e-01,5.877308845520019531e-01,5.771726965904235840e-01,5.643677711486816406e-01,5.512642860412597656e-01,5.409233570098876953e-01,5.292204618453979492e-01,5.183452367782592773e-01,5.086656808853149414e-01,4.999800026416778564e-01,4.932950139045715332e-01,0.000000000000000000e+00,0.000000000000000000e+00,0.000000000000000000e+00
0.000000000000000000e+00,0.000000000000000000e+00,0.000000000000000000e+00,0.000000000000000000e+00,-1.406477671116590500e-02,-1.437999960035085678e-02,-1.427846122533082962e-02,-1.345230732113122940e-02,-1.165714301168918610e-02,-8.534602820873260498e-03,-4.328709561377763748e-03,6.829508347436785698e-04,5.750491749495267868e-03,9.481666609644889832e-03,1.159169524908065796e-02,1.261310372501611710e-02,1.303948275744915009e-02,1.302446424961090088e-02,1.260736770927906036e-02,1.152890920639038086e-02,1.053345482796430588e-02,9.738490916788578033e-03,8.681698702275753021e-03,7.581320591270923615e-03,6.618269253522157669e-03,5.891176406294107437e-03,5.121176596730947495e-03,4.445000085979700089e-03,3.892857115715742111e-03,3.651632694527506828e-03,3.517142729833722115e-03,3.718958236277103424e-03,4.224042873829603195e-03,4.574468359351158142e-03,5.842978600412607193e-03,7.400444708764553070e-03,1.019333396106958389e-02,1.584818214178085327e-02,2.463977225124835968e-02,3.545272722840309143e-02,4.815116152167320251e-02,6.136232614517211914e-02,7.395143061876296997e-02,8.546071499586105347e-02,9.642439335584640503e-02,1.069897562265396118e-01,1.166356131434440613e-01,1.227925047278404236e-01,1.262666583061218262e-01,1.252676993608474731e-01,1.206605136394500732e-01,1.139773726463317871e-01,1.065660566091537476e-01,9.997459501028060913e-02,9.533351659774780273e-02,9.193405508995056152e-02,8.962324261665344238e-02,8.829250186681747437e-02,8.738142997026443481e-02,8.652750402688980103e-02,8.566000312566757202e-02,8.428294211626052856e-02,8.321999758481979370e-02,8.293735235929489136e-02,8.321794122457504272e-02,8.499515056610107422e-02,8.887727558612823486e-02,9.408780932426452637e-02,1.010666638612747192e-01,1.105149984359741211e-01,1.229967772960662842e-01,1.370906233787536621e-01,1.518451571464538574e-01,1.675290316343307495e-01,1.815999895334243774e-01,1.948450058698654175e-01,2.082539945840835571e-01,2.233053296804428101e-01,2.449220716953277588e-01,2.757355272769927979e-01,3.164886236190795898e-01,3.671627640724182129e-01,4.277021288871765137e-01,4.895878434181213379e-01,5.459953546524047852e-01,5.946100354194641113e-01,6.295886039733886719e-01,6.544544696807861328e-01,6.690599918365478516e-01,6.779433488845825195e-01,6.838515400886535645e-01,6.848011016845703125e-01,6.848084926605224609e-01,6.784651875495910645e-01,6.718824505805969238e-01,6.637080311775207520e-01,6.532583832740783691e-01,6.434772014617919922e-01,6.343272328376770020e-01,6.259533166885375977e-01,6.171399950981140137e-01,6.103600263595581055e-01,6.043283343315124512e-01,6.003200411796569824e-01,5.967887639999389648e-01,5.933995842933654785e-01,5.902799963951110840e-01,5.869721770286560059e-01,5.831563472747802734e-01,5.776469707489013672e-01,5.694063901901245117e-01,5.596209168434143066e-01,5.482208728790283203e-01,5.362772345542907715e-01,5.232395529747009277e-01,5.103871226310729980e-01,4.987247586250305176e-01,4.865457117557525635e-01,4.752480983734130859e-01,4.652999937534332275e-01,4.569733142852783203e-01,4.499525129795074463e-01,0.000000000000000000e+00,0.000000000000000000e+00,0.000000000000000000e+00
0.000000000000000000e+00,0.000000000000000000e+00,0.000000000000000000e+00,0.000000000000000000e+00,-1.122203022241592407e-01,-1.117331832647323608e-01,-1.110329255461692810e-01,-1.100969165563583374e-01,-1.084314286708831787e-01,-1.050107926130294800e-01,-1.007495149970054626e-01,-9.599639475345611572e-02,-9.114393591880798340e-02,-8.759750425815582275e-02,-8.508813381195068359e-02,-8.367259055376052856e-02,-8.306638151407241821e-02,-8.260071277618408203e-02,-8.251211047172546387e-02,-8.329054713249206543e-02,-8.383399993181228638e-02,-8.447094261646270752e-02,-8.464641869068145752e-02,-8.555282652378082275e-02,-8.592192083597183228e-02,-8.628293871879577637e-02,-8.686960488557815552e-02,-8.711999654769897461e-02,-8.729142695665359497e-02,-8.726591616868972778e-02,-8.707857131958007812e-02,-8.625916391611099243e-02,-8.554489165544509888e-02,-8.437127619981765747e-02,-8.274319022893905640e-02,-8.148222416639328003e-02,-7.838600128889083862e-02,-7.326977699995040894e-02,-6.520432233810424805e-02,-5.584181845188140869e-02,-4.490069672465324402e-02,-3.364348784089088440e-02,-2.289428561925888062e-02,-1.267499942332506180e-02,-2.610975643619894981e-03,6.991219706833362579e-03,1.565658673644065857e-02,2.139849960803985596e-02,2.471230737864971161e-02,2.398410253226757050e-02,1.993487216532230377e-02,1.420894637703895569e-02,7.993157953023910522e-03,2.418108051642775536e-03,-1.644324278458952904e-03,-4.405405372381210327e-03,-6.017567589879035950e-03,-6.792500149458646774e-03,-7.562857121229171753e-03,-7.908334024250507355e-03,-8.860000409185886383e-03,-9.827940724790096283e-03,-1.022529415786266327e-02,-1.027117669582366943e-02,-1.003882382065057755e-02,-8.424545638263225555e-03,-5.159091204404830933e-03,-5.081250565126538277e-04,5.983333103358745575e-03,1.448999997228384018e-02,2.598516270518302917e-02,3.867687657475471497e-02,5.180064588785171509e-02,6.566581130027770996e-02,7.826200127601623535e-02,9.033299982547760010e-02,1.027679964900016785e-01,1.160760000348091125e-01,1.354889571666717529e-01,1.634251773357391357e-01,2.008355259895324707e-01,2.472672462463378906e-01,3.025314211845397949e-01,3.595760762691497803e-01,4.115607142448425293e-01,4.570633172988891602e-01,4.901271462440490723e-01,5.136274099349975586e-01,5.276899933815002441e-01,5.364411473274230957e-01,5.418484210968017578e-01,5.436722040176391602e-01,5.432892441749572754e-01,5.375831723213195801e-01,5.311160087585449219e-01,5.236679911613464355e-01,5.140444040298461914e-01,5.047996044158935547e-01,4.969488084316253662e-01,4.885595738887786865e-01,4.806966781616210938e-01,4.746400117874145508e-01,4.691383242607116699e-01,4.653858244419097900e-01,4.618308544158935547e-01,4.592213034629821777e-01,4.567104279994964600e-01,4.543913006782531738e-01,4.501082003116607666e-01,4.449782669544219971e-01,4.374590814113616943e-01,4.284263551235198975e-01,4.176808893680572510e-01,4.068645536899566650e-01,3.940495550632476807e-01,3.815143108367919922e-01,3.707066774368286133e-01,3.592742681503295898e-01,3.488690555095672607e-01,3.400942683219909668e-01,3.321900069713592529e-01,3.250074982643127441e-01,0.000000000000000000e+00,0.000000000000000000e+00,0.000000000000000000e+00
0.000000000000000000e+00,0.000000000000000000e+00,0.000000000000000000e+00,0.000000000000000000e+00,1.866552233695983887e-02,1.786318048834800720e-02,1.732876896858215332e-02,1.758307777345180511e-02,1.865428686141967773e-02,2.150746062397956848e-02,2.493677474558353424e-02,2.922623045742511749e-02,3.375344350934028625e-02,3.694250062108039856e-02,3.859338909387588501e-02,3.941241279244422913e-02,3.951465338468551636e-02,3.942285478115081787e-02,3.882842138409614563e-02,3.787345439195632935e-02,3.701600059866905212e-02,3.575849160552024841e-02,3.473226353526115417e-02,3.377679362893104553e-02,3.272038325667381287e-02,3.178000077605247498e-02,3.104019537568092346e-02,3.053499944508075714e-02,2.989714220166206360e-02,2.957734651863574982e-02,2.944571524858474731e-02,2.960812486708164215e-02,3.012106381356716156e-02,3.046531975269317627e-02,3.143936023116111755e-02,3.302644565701484680e-02,3.572266921401023865e-02,4.121613502502441406e-02,4.963500052690505981e-02,6.015091016888618469e-02,7.229837030172348022e-02,8.525418490171432495e-02,9.730571508407592773e-02,1.082535684108734131e-01,1.187451258301734924e-01,1.289080530405044556e-01,1.377392709255218506e-01,1.436405032873153687e-01,1.471461504697799683e-01,1.465435922145843506e-01,1.421948671340942383e-01,1.355068534612655640e-01,1.278849989175796509e-01,1.212232410907745361e-01,1.164908111095428467e-01,1.129643246531486511e-01,1.104981079697608948e-01,1.089674979448318481e-01,1.081314235925674438e-01,1.070866659283638000e-01,1.063800007104873657e-01,1.048526465892791748e-01,1.036611720919609070e-01,1.037335246801376343e-01,1.038573533296585083e-01,1.054621189832687378e-01,1.091869696974754333e-01,1.142812520265579224e-01,1.211966648697853088e-01,1.300999969244003296e-01,1.418854743242263794e-01,1.553006321191787720e-01,1.693757921457290649e-01,1.841041892766952515e-01,1.975979954004287720e-01,2.102639973163604736e-01,2.230619937181472778e-01,2.376879900693893433e-01,2.580455243587493896e-01,2.868644893169403076e-01,3.243831098079681396e-01,3.712189793586730957e-01,4.264514446258544922e-01,4.820699989795684814e-01,5.328578352928161621e-01,5.761811137199401855e-01,6.074200272560119629e-01,6.289329528808593750e-01,6.422649621963500977e-01,6.506240963935852051e-01,6.561030745506286621e-01,6.576633453369140625e-01,6.571215391159057617e-01,6.510192155838012695e-01,6.446152329444885254e-01,6.377591490745544434e-01,6.288020014762878418e-01,6.194887757301330566e-01,6.116408109664916992e-01,6.036966443061828613e-01,5.955533385276794434e-01,5.887449979782104492e-01,5.836650133132934570e-01,5.801083445549011230e-01,5.758404135704040527e-01,5.727026462554931641e-01,5.697764754295349121e-01,5.676969289779663086e-01,5.641090869903564453e-01,5.589551925659179688e-01,5.516700148582458496e-01,5.437136292457580566e-01,5.338545441627502441e-01,5.229545831680297852e-01,5.113763809204101562e-01,5.002385377883911133e-01,4.909161925315856934e-01,4.808476269245147705e-01,4.715518951416015625e-01,4.633871316909790039e-01,4.568533301353454590e-01,4.512025117874145508e-01,0.000000000000000000e+00,0.000000000000000000e+00,0.000000000000000000e+00
0.000000000000000000e+00,0.000000000000000000e+00,0.000000000000000000e+00,0.000000000000000000e+00,1.163668632507324219e-01,1.149075776338577271e-01,1.139752268791198730e-01,1.141861528158187866e-01,1.154142841696739197e-01,1.185896769165992737e-01,1.227669343352317810e-01,1.282398402690887451e-01,1.337585300207138062e-01,1.376191675662994385e-01,1.398284733295440674e-01,1.406491398811340332e-01,1.409184485673904419e-01,1.400384008884429932e-01,1.386163085699081421e-01,1.373232752084732056e-01,1.359730958938598633e-01,1.339811384677886963e-01,1.317220777273178101e-01,1.307032108306884766e-01,1.292859613895416260e-01,1.274994015693664551e-01,1.262592226266860962e-01,1.250749975442886353e-01,1.236585676670074463e-01,1.227471381425857544e-01,1.223214268684387207e-01,1.217583343386650085e-01,1.218768060207366943e-01,1.218925565481185913e-01,1.219487264752388000e-01,1.240184456110000610e-01,1.265946626663208008e-01,1.325059086084365845e-01,1.416043192148208618e-01,1.537027209997177124e-01,1.677544116973876953e-01,1.824493110179901123e-01,1.961914300918579102e-01,2.089049965143203735e-01,2.209397554397583008e-01,2.324521988630294800e-01,2.433029264211654663e-01,2.498209923505783081e-01,2.527494728565216064e-01,2.516807615756988525e-01,2.457125633955001831e-01,2.380594760179519653e-01,2.292697429656982422e-01,2.215567529201507568e-01,2.158748656511306763e-01,2.115797400474548340e-01,2.084527015686035156e-01,2.069974988698959351e-01,2.058999985456466675e-01,2.043749988079071045e-01,2.030799984931945801e-01,2.009094208478927612e-01,1.987829357385635376e-01,1.981823593378067017e-01,1.984852999448776245e-01,1.996651589870452881e-01,2.034487873315811157e-01,2.093615531921386719e-01,2.167999893426895142e-01,2.265874892473220825e-01,2.405406385660171509e-01,2.551681101322174072e-01,2.718654870986938477e-01,2.888751626014709473e-01,3.038339912891387939e-01,3.176689743995666504e-01,3.316639959812164307e-01,3.473260104656219482e-01,3.690120875835418701e-01,4.003058671951293945e-01,4.415927529335021973e-01,4.925527274608612061e-01,5.534114837646484375e-01,6.157442927360534668e-01,6.721110343933105469e-01,7.210055589675903320e-01,7.554471492767333984e-01,7.804214954376220703e-01,7.947250008583068848e-01,8.030025959014892578e-01,8.078054189682006836e-01,8.095611333847045898e-01,8.094569444656372070e-01,8.034576177597045898e-01,7.961964011192321777e-01,7.871307730674743652e-01,7.775939702987670898e-01,7.678920030593872070e-01,7.594608068466186523e-01,7.505466938018798828e-01,7.419866323471069336e-01,7.353100180625915527e-01,7.302833795547485352e-01,7.251049876213073730e-01,7.213646173477172852e-01,7.195274233818054199e-01,7.167904376983642578e-01,7.135565280914306641e-01,7.085990905761718750e-01,7.026426196098327637e-01,6.948854327201843262e-01,6.843690872192382812e-01,6.732417941093444824e-01,6.617109179496765137e-01,6.488372683525085449e-01,6.336485743522644043e-01,6.223933100700378418e-01,6.110104918479919434e-01,5.995628833770751953e-01,5.890428423881530762e-01,5.800499916076660156e-01,5.722900032997131348e-01,0.000000000000000000e+00,0.000000000000000000e+00,0.000000000000000000e+00
0.000000000000000000e+00,0.000000000000000000e+00,0.000000000000000000e+00,0.000000000000000000e+00,8.869223296642303467e-02,8.725317567586898804e-02,8.557430654764175415e-02,8.597077429294586182e-02,8.672571182250976562e-02,8.879905194044113159e-02,9.198468178510665894e-02,9.655491262674331665e-02,1.010139361023902893e-01,1.041074991226196289e-01,1.059667840600013733e-01,1.068929284811019897e-01,1.070367246866226196e-01,1.060060709714889526e-01,1.052105277776718140e-01,1.045232787728309631e-01,1.032183617353439331e-01,1.016707569360733032e-01,9.982094168663024902e-02,9.902924299240112305e-02,9.812808036804199219e-02,9.698470681905746460e-02,9.612195938825607300e-02,9.543500095605850220e-02,9.460856765508651733e-02,9.396713972091674805e-02,9.372714161872863770e-02,9.342333674430847168e-02,9.383510798215866089e-02,9.409382939338684082e-02,9.413935989141464233e-02,9.581089019775390625e-02,9.853466600179672241e-02,1.034347712993621826e-01,1.111881807446479797e-01,1.214227303862571716e-01,1.332879066467285156e-01,1.457562744617462158e-01,1.574700027704238892e-01,1.682207137346267700e-01,1.785612106323242188e-01,1.887563467025756836e-01,1.981700062751770020e-01,2.035329937934875488e-01,2.066133320331573486e-01,2.058369219303131104e-01,2.011312842369079590e-01,1.949405223131179810e-01,1.878257989883422852e-01,1.814516186714172363e-01,1.766240596771240234e-01,1.729332506656646729e-01,1.703102737665176392e-01,1.691350042819976807e-01,1.684485673904418945e-01,1.672874987125396729e-01,1.664000004529953003e-01,1.647717654705047607e-01,1.631217598915100098e-01,1.626917570829391479e-01,1.630235314369201660e-01,1.641342341899871826e-01,1.675866693258285522e-01,1.729446798563003540e-01,1.793233305215835571e-01,1.878699958324432373e-01,1.995883882045745850e-01,2.130093723535537720e-01,2.273964583873748779e-01,2.421700060367584229e-01,2.557019889354705811e-01,2.679530084133148193e-01,2.802959978580474854e-01,2.937833368778228760e-01,3.131754994392395020e-01,3.411620557308197021e-01,3.780158460140228271e-01,4.245330989360809326e-01,4.795092940330505371e-01,5.371689200401306152e-01,5.903160572052001953e-01,6.354299783706665039e-01,6.670742630958557129e-01,6.905989050865173340e-01,7.043550014495849609e-01,7.118852138519287109e-01,7.160484790802001953e-01,7.180388569831848145e-01,7.183415293693542480e-01,7.130504250526428223e-01,7.048795819282531738e-01,6.983612179756164551e-01,6.894907951354980469e-01,6.809408068656921387e-01,6.732975840568542480e-01,6.648262739181518555e-01,6.574966311454772949e-01,6.508649587631225586e-01,6.463350057601928711e-01,6.420641541481018066e-01,6.375741958618164062e-01,6.365521550178527832e-01,6.333413124084472656e-01,6.311339139938354492e-01,6.273054480552673340e-01,6.214243769645690918e-01,6.140727400779724121e-01,6.047672629356384277e-01,5.954645276069641113e-01,5.847245454788208008e-01,5.729886293411254883e-01,5.597271323204040527e-01,5.500476360321044922e-01,5.396895408630371094e-01,5.289852619171142578e-01,5.196657180786132812e-01,5.120266675949096680e-01,5.052574872970581055e-01,0.000000000000000000e+00,0.000000000000000000e+00,0.000000000000000000e+00
0.000000000000000000e+00,0.000000000000000000e+00,0.000000000000000000e+00,0.000000000000000000e+00,1.134807467460632324e-01,1.122390925884246826e-01,1.107146143913269043e-01,1.112638413906097412e-01,1.124557107686996460e-01,1.156295239925384521e-01,1.197877451777458191e-01,1.250255852937698364e-01,1.304550915956497192e-01,1.342258304357528687e-01,1.366567909717559814e-01,1.378918886184692383e-01,1.385577470064163208e-01,1.377164274454116821e-01,1.370468437671661377e-01,1.357854455709457397e-01,1.343881934881210327e-01,1.330648958683013916e-01,1.308777332305908203e-01,1.300513297319412231e-01,1.288661509752273560e-01,1.274994015693664551e-01,1.262290179729461670e-01,1.253200024366378784e-01,1.243957206606864929e-01,1.237542852759361267e-01,1.235514283180236816e-01,1.232333332300186157e-01,1.237387210130691528e-01,1.242151111364364624e-01,1.243576630949974060e-01,1.262677758932113647e-01,1.299059987068176270e-01,1.359056830406188965e-01,1.453527212142944336e-01,1.575427204370498657e-01,1.718197762966156006e-01,1.866355836391448975e-01,2.002671360969543457e-01,2.130278497934341431e-01,2.251795083284378052e-01,2.371426820755004883e-01,2.483475506305694580e-01,2.542549967765808105e-01,2.581353783607482910e-01,2.573612630367279053e-01,2.518438398838043213e-01,2.441426366567611694e-01,2.356152683496475220e-01,2.281316220760345459e-01,2.225040495395660400e-01,2.181500047445297241e-01,2.152594625949859619e-01,2.138074934482574463e-01,2.129871398210525513e-01,2.116891592741012573e-01,2.105499953031539917e-01,2.088811695575714111e-01,2.068064659833908081e-01,2.063702940940856934e-01,2.068473547697067261e-01,2.083409130573272705e-01,2.121651619672775269e-01,2.183353155851364136e-01,2.255399972200393677e-01,2.353249937295913696e-01,2.490706443786621094e-01,2.642206251621246338e-01,2.805071175098419189e-01,2.972664535045623779e-01,3.122859895229339600e-01,3.264160156250000000e-01,3.407579958438873291e-01,3.565379977226257324e-01,3.780734539031982422e-01,4.096437990665435791e-01,4.516313672065734863e-01,5.035406947135925293e-01,5.652764439582824707e-01,6.293792724609375000e-01,6.877314448356628418e-01,7.388633489608764648e-01,7.743999958038330078e-01,8.001869916915893555e-01,8.165550231933593750e-01,8.253951668739318848e-01,8.311415314674377441e-01,8.326933383941650391e-01,8.339638710021972656e-01,8.268651962280273438e-01,8.197371959686279297e-01,8.111612200736999512e-01,8.006247878074645996e-01,7.919055819511413574e-01,7.835060358047485352e-01,7.735450267791748047e-01,7.645099759101867676e-01,7.581275105476379395e-01,7.521916627883911133e-01,7.465674877166748047e-01,7.431841492652893066e-01,7.407900094985961914e-01,7.377204298973083496e-01,7.353652119636535645e-01,7.305023074150085449e-01,7.239595651626586914e-01,7.151318192481994629e-01,7.049863338470458984e-01,6.935972571372985840e-01,6.818245649337768555e-01,6.688004732131958008e-01,6.529842615127563477e-01,6.415100097656250000e-01,6.307404637336730957e-01,6.190800070762634277e-01,6.082457304000854492e-01,5.992199778556823730e-01,5.907675027847290039e-01,0.000000000000000000e+00,0.000000000000000000e+00,0.000000000000000000e+00
0.000000000000000000e+00,0.000000000000000000e+00,0.000000000000000000e+00,0.000000000000000000e+00,-3.053462691605091095e-02,-3.116818331182003021e-02,-3.201399743556976318e-02,-3.146846219897270203e-02,-2.992142736911773682e-02,-2.675111033022403717e-02,-2.280354872345924377e-02,-1.768639311194419861e-02,-1.262409798800945282e-02,-8.648333139717578888e-03,-5.935932509601116180e-03,-4.438965581357479095e-03,-4.062413703650236130e-03,-4.266607109457254410e-03,-4.918420687317848206e-03,-5.269454792141914368e-03,-6.038909312337636948e-03,-7.217169739305973053e-03,-8.740377612411975861e-03,-9.470188990235328674e-03,-1.035365369170904160e-02,-1.112058851867914200e-02,-1.183666661381721497e-02,-1.246999949216842651e-02,-1.308857183903455734e-02,-1.347918342798948288e-02,-1.347857154905796051e-02,-1.361645758152008057e-02,-1.310680806636810303e-02,-1.249765977263450623e-02,-1.196063868701457977e-02,-1.008311100304126740e-02,-6.920666433870792389e-03,-1.298863673582673073e-03,7.001136429607868195e-03,1.805818080902099609e-02,3.101116232573986053e-02,4.435023292899131775e-02,5.736428499221801758e-02,6.951857358217239380e-02,8.119731396436691284e-02,9.267219901084899902e-02,1.030575558543205261e-01,1.095964983105659485e-01,1.124797388911247253e-01,1.115502566099166870e-01,1.065199971199035645e-01,9.931842237710952759e-02,9.157000482082366943e-02,8.475648611783981323e-02,7.965054363012313843e-02,7.612026482820510864e-02,7.355000078678131104e-02,7.243999838829040527e-02,7.182999700307846069e-02,7.080583274364471436e-02,6.998000293970108032e-02,6.857617944478988647e-02,6.668294221162796021e-02,6.636499613523483276e-02,6.689853221178054810e-02,6.845606118440628052e-02,7.217030227184295654e-02,7.760906219482421875e-02,8.469666540622711182e-02,9.419500082731246948e-02,1.075629070401191711e-01,1.220900043845176697e-01,1.381225734949111938e-01,1.544542014598846436e-01,1.694879978895187378e-01,1.833849996328353882e-01,1.974419951438903809e-01,2.131339907646179199e-01,2.352079302072525024e-01,2.676289677619934082e-01,3.110448122024536133e-01,3.653334379196166992e-01,4.308757185935974121e-01,4.998814165592193604e-01,5.632253289222717285e-01,6.181499958038330078e-01,6.578128933906555176e-01,6.861329674720764160e-01,7.034850120544433594e-01,7.137389183044433594e-01,7.197115421295166016e-01,7.221055626869201660e-01,7.220407724380493164e-01,7.156339883804321289e-01,7.083452343940734863e-01,6.995580196380615234e-01,6.900800466537475586e-01,6.793916225433349609e-01,6.703923940658569336e-01,6.607133746147155762e-01,6.518966555595397949e-01,6.443849802017211914e-01,6.379933357238769531e-01,6.328433156013488770e-01,6.281000375747680664e-01,6.260582804679870605e-01,6.227104067802429199e-01,6.199517846107482910e-01,6.155463457107543945e-01,6.087239384651184082e-01,5.992218255996704102e-01,5.880618095397949219e-01,5.763099789619445801e-01,5.639681816101074219e-01,5.496577024459838867e-01,5.335914492607116699e-01,5.206956863403320312e-01,5.084290504455566406e-01,4.956623911857604980e-01,4.843585789203643799e-01,4.748200178146362305e-01,4.669274985790252686e-01,0.000000000000000000e+00,0.000000000000000000e+00,0.000000000000000000e+00
0.000000000000000000e+00,0.000000000000000000e+00,0.000000000000000000e+00,0.000000000000000000e+00,-1.145208906382322311e-02,-1.251439470797777176e-02,-1.381369214504957199e-02,-1.319384574890136719e-02,-1.179999951273202896e-02,-8.720793761312961578e-03,-4.784838762134313583e-03,6.508201477117836475e-05,4.996229428797960281e-03,8.823333308100700378e-03,1.130084786564111710e-02,1.240120735019445419e-02,1.300672441720962524e-02,1.275232154875993729e-02,1.217000000178813934e-02,1.119454577565193176e-02,1.020690891891717911e-02,9.173396043479442596e-03,7.512075826525688171e-03,6.631320808082818985e-03,5.942692514508962631e-03,4.877647385001182556e-03,4.036470782011747360e-03,3.370000049471855164e-03,2.684285631403326988e-03,2.095306059345602989e-03,2.010000171139836311e-03,2.045416738837957382e-03,2.364893676713109016e-03,2.950638299807906151e-03,3.557872259989380836e-03,5.383111070841550827e-03,8.282667025923728943e-03,1.412318181246519089e-02,2.245181798934936523e-02,3.348181769251823425e-02,4.639395326375961304e-02,5.980930104851722717e-02,7.253285497426986694e-02,8.411928266286849976e-02,9.533853828907012939e-02,1.066095158457756042e-01,1.165021955966949463e-01,1.228530034422874451e-01,1.259282082319259644e-01,1.253023147583007812e-01,1.202710270881652832e-01,1.134463176131248474e-01,1.055118441581726074e-01,9.887973219156265259e-02,9.372783452272415161e-02,9.013594686985015869e-02,8.756972849369049072e-02,8.644250035285949707e-02,8.578713983297348022e-02,8.488416671752929688e-02,8.381000161170959473e-02,8.223941177129745483e-02,8.072588592767715454e-02,8.015588670969009399e-02,8.083264529705047607e-02,8.224696666002273560e-02,8.589182049036026001e-02,9.131374955177307129e-02,9.828999638557434082e-02,1.075149998068809509e-01,1.201061308383941650e-01,1.342018693685531616e-01,1.495251506567001343e-01,1.649529039859771729e-01,1.793060004711151123e-01,1.924110054969787598e-01,2.057359963655471802e-01,2.209319919347763062e-01,2.419151663780212402e-01,2.724255025386810303e-01,3.126717209815979004e-01,3.636741340160369873e-01,4.240806996822357178e-01,4.870335757732391357e-01,5.459021329879760742e-01,5.958133339881896973e-01,6.315914392471313477e-01,6.580404043197631836e-01,6.732749938964843750e-01,6.823144555091857910e-01,6.879053711891174316e-01,6.891999840736389160e-01,6.893553733825683594e-01,6.839175820350646973e-01,6.762871742248535156e-01,6.685432195663452148e-01,6.592779755592346191e-01,6.488991975784301758e-01,6.403135657310485840e-01,6.315875053405761719e-01,6.231866478919982910e-01,6.159700155258178711e-01,6.104183197021484375e-01,6.057241559028625488e-01,6.020545959472656250e-01,5.994726419448852539e-01,5.965464711189270020e-01,5.942630171775817871e-01,5.895382165908813477e-01,5.836030840873718262e-01,5.754590630531311035e-01,5.652772784233093262e-01,5.542972683906555176e-01,5.426663756370544434e-01,5.292418003082275391e-01,5.156971812248229980e-01,5.036676526069641113e-01,4.922885894775390625e-01,4.808490574359893799e-01,4.713214337825775146e-01,4.627700150012969971e-01,4.554225206375122070e-01,0.000000000000000000e+00,0.000000000000000000e+00,0.000000000000000000e+00
0.000000000000000000e+00,0.000000000000000000e+00,0.000000000000000000e+00,0.000000000000000000e+00,7.981955260038375854e-02,7.850030064582824707e-02,7.833292335271835327e-02,7.895230501890182495e-02,8.054856956005096436e-02,8.421222120523452759e-02,8.894435316324234009e-02,9.464180469512939453e-02,1.001604944467544556e-01,1.045433282852172852e-01,1.072015240788459778e-01,1.085315495729446411e-01,1.084065511822700500e-01,1.081053614616394043e-01,1.074615791440010071e-01,1.063781827688217163e-01,1.043334528803825378e-01,1.029726415872573853e-01,1.015564203262329102e-01,1.004175469279289246e-01,9.939942508935928345e-02,9.817470610141754150e-02,9.708980470895767212e-02,9.604999423027038574e-02,9.504713863134384155e-02,9.456428140401840210e-02,9.424000233411788940e-02,9.417396038770675659e-02,9.435170143842697144e-02,9.476425498723983765e-02,9.559276700019836426e-02,9.757400304079055786e-02,1.006259992718696594e-01,1.076113656163215637e-01,1.175122782588005066e-01,1.303481906652450562e-01,1.451958119869232178e-01,1.605395376682281494e-01,1.747642904520034790e-01,1.878742873668670654e-01,2.003636658191680908e-01,2.124126851558685303e-01,2.234068214893341064e-01,2.303489893674850464e-01,2.339981943368911743e-01,2.329320460557937622e-01,2.271812707185745239e-01,2.189457863569259644e-01,2.100113183259963989e-01,2.024383842945098877e-01,1.968002766370773315e-01,1.924543231725692749e-01,1.899921596050262451e-01,1.882700026035308838e-01,1.869185715913772583e-01,1.858983337879180908e-01,1.851000040769577026e-01,1.833894252777099609e-01,1.809935271739959717e-01,1.805135309696197510e-01,1.809747070074081421e-01,1.827833354473114014e-01,1.867275685071945190e-01,1.926424950361251831e-01,2.005033344030380249e-01,2.107700109481811523e-01,2.245977520942687988e-01,2.400793731212615967e-01,2.573248445987701416e-01,2.743448317050933838e-01,2.896279990673065186e-01,3.043099939823150635e-01,3.193919956684112549e-01,3.357639908790588379e-01,3.587400019168853760e-01,3.914510309696197510e-01,4.345999956130981445e-01,4.871186316013336182e-01,5.496035814285278320e-01,6.126936078071594238e-01,6.690014004707336426e-01,7.178322076797485352e-01,7.524585723876953125e-01,7.758392691612243652e-01,7.912299633026123047e-01,8.001581430435180664e-01,8.057953715324401855e-01,8.071100115776062012e-01,8.056684732437133789e-01,7.994676232337951660e-01,7.941759824752807617e-01,7.848815917968750000e-01,7.747427821159362793e-01,7.657967805862426758e-01,7.569796442985534668e-01,7.477783560752868652e-01,7.384766340255737305e-01,7.321425080299377441e-01,7.260733842849731445e-01,7.218391299247741699e-01,7.167845964431762695e-01,7.153043746948242188e-01,7.120304703712463379e-01,7.088647484779357910e-01,7.036513686180114746e-01,6.990861296653747559e-01,6.902872920036315918e-01,6.805818080902099609e-01,6.697354912757873535e-01,6.581136584281921387e-01,6.443859338760375977e-01,6.312414407730102539e-01,6.182490587234497070e-01,6.065271496772766113e-01,5.957628488540649414e-01,5.850828886032104492e-01,5.760333538055419922e-01,5.693250298500061035e-01,0.000000000000000000e+00,0.000000000000000000e+00,0.000000000000000000e+00
0.000000000000000000e+00,0.000000000000000000e+00,0.000000000000000000e+00,0.000000000000000000e+00,-2.377641759812831879e-02,-2.502348460257053375e-02,-2.526646107435226440e-02,-2.437615394592285156e-02,-2.253571338951587677e-02,-1.886825449764728546e-02,-1.400645170360803604e-02,-7.993115112185478210e-03,-2.259344328194856644e-03,2.374999923631548882e-03,5.283220205456018448e-03,6.684482563287019730e-03,6.897930987179279327e-03,6.561071611940860748e-03,5.739473737776279449e-03,4.628545604646205902e-03,2.976363524794578552e-03,1.664339681155979633e-03,-5.584905375144444406e-05,-1.327547128312289715e-03,-2.237500157207250595e-03,-3.468823619186878204e-03,-4.601176362484693527e-03,-5.599999800324440002e-03,-6.601428613066673279e-03,-7.111020386219024658e-03,-7.327142637223005295e-03,-7.320625241845846176e-03,-7.129787467420101166e-03,-6.413829512894153595e-03,-5.733403842896223068e-03,-3.959999885410070419e-03,-6.013333913870155811e-04,6.270227488130331039e-03,1.664863713085651398e-02,2.954818122088909149e-02,4.483558237552642822e-02,6.088906899094581604e-02,7.606857270002365112e-02,9.035928547382354736e-02,1.039029285311698914e-01,1.170197576284408569e-01,1.288402527570724487e-01,1.362394988536834717e-01,1.402399986982345581e-01,1.387966573238372803e-01,1.325315386056900024e-01,1.239468380808830261e-01,1.147947385907173157e-01,1.069862172007560730e-01,1.009224355220794678e-01,9.651594609022140503e-02,9.376459568738937378e-02,9.210000187158584595e-02,9.073285758495330811e-02,8.986333012580871582e-02,8.872000128030776978e-02,8.688146620988845825e-02,8.498823642730712891e-02,8.427470922470092773e-02,8.451882749795913696e-02,8.637515455484390259e-02,9.059666842222213745e-02,9.693343937397003174e-02,1.053466647863388062e-01,1.168024986982345581e-01,1.317080557346343994e-01,1.484899967908859253e-01,1.667629033327102661e-01,1.854016035795211792e-01,2.020580023527145386e-01,2.177149951457977295e-01,2.339039891958236694e-01,2.515946626663208008e-01,2.767503559589385986e-01,3.127979338169097900e-01,3.607268929481506348e-01,4.193841218948364258e-01,4.884564280509948730e-01,5.585706830024719238e-01,6.207489371299743652e-01,6.748155355453491211e-01,7.126671075820922852e-01,7.387377619743347168e-01,7.556899785995483398e-01,7.664003968238830566e-01,7.725946307182312012e-01,7.744110822677612305e-01,7.728761434555053711e-01,7.683076262474060059e-01,7.610884308815002441e-01,7.516404390335083008e-01,7.413111925125122070e-01,7.315624356269836426e-01,7.222328186035156250e-01,7.121704220771789551e-01,7.029366493225097656e-01,6.955350041389465332e-01,6.894683241844177246e-01,6.853733062744140625e-01,6.824079155921936035e-01,6.778035163879394531e-01,6.757947802543640137e-01,6.715152263641357422e-01,6.668068170547485352e-01,6.613721847534179688e-01,6.515763401985168457e-01,6.401690840721130371e-01,6.281145215034484863e-01,6.163072586059570312e-01,6.012068390846252441e-01,5.862971544265747070e-01,5.721885561943054199e-01,5.581352114677429199e-01,5.460328459739685059e-01,5.338656902313232422e-01,5.237633585929870605e-01,5.149149894714355469e-01,0.000000000000000000e+00,0.000000000000000000e+00,0.000000000000000000e+00
0.000000000000000000e+00,0.000000000000000000e+00,0.000000000000000000e+00,0.000000000000000000e+00,6.677731126546859741e-02,6.537954509258270264e-02,6.495968997478485107e-02,6.553614884614944458e-02,6.684714555740356445e-02,7.032396644353866577e-02,7.472532242536544800e-02,8.005114644765853882e-02,8.531803637742996216e-02,8.957749605178833008e-02,9.194321930408477783e-02,9.320517629384994507e-02,9.347120672464370728e-02,9.316625446081161499e-02,9.217946976423263550e-02,9.101000428199768066e-02,8.944254368543624878e-02,8.831980824470520020e-02,8.691377937793731689e-02,8.592811226844787598e-02,8.484692126512527466e-02,8.374647051095962524e-02,8.268529176712036133e-02,8.145999908447265625e-02,8.058571070432662964e-02,8.023897558450698853e-02,8.005142956972122192e-02,7.976104319095611572e-02,7.979212701320648193e-02,8.042298257350921631e-02,8.099871873855590820e-02,8.305711299180984497e-02,8.607733249664306641e-02,9.243363887071609497e-02,1.022138595581054688e-01,1.143318191170692444e-01,1.283518522977828979e-01,1.430272012948989868e-01,1.565899997949600220e-01,1.692157089710235596e-01,1.814885288476943970e-01,1.931324452161788940e-01,2.036416977643966675e-01,2.099969983100891113e-01,2.138797491788864136e-01,2.121543586254119873e-01,2.068594843149185181e-01,1.993731558322906494e-01,1.908515691757202148e-01,1.837516129016876221e-01,1.783545911312103271e-01,1.743945926427841187e-01,1.718608140945434570e-01,1.702474951744079590e-01,1.693914383649826050e-01,1.684566736221313477e-01,1.676699966192245483e-01,1.656623631715774536e-01,1.640970557928085327e-01,1.635014712810516357e-01,1.637614667415618896e-01,1.652348488569259644e-01,1.693009138107299805e-01,1.752990633249282837e-01,1.827133297920227051e-01,1.919675022363662720e-01,2.052429020404815674e-01,2.200981229543685913e-01,2.367619276046752930e-01,2.529515922069549561e-01,2.671340107917785645e-01,2.810400128364562988e-01,2.953619956970214844e-01,3.106546700000762939e-01,3.321330845355987549e-01,3.627458512783050537e-01,4.024100005626678467e-01,4.519700109958648682e-01,5.108470916748046875e-01,5.704753398895263672e-01,6.236782073974609375e-01,6.704399585723876953e-01,7.031828761100769043e-01,7.262955307960510254e-01,7.413949966430664062e-01,7.509925961494445801e-01,7.570046186447143555e-01,7.585210800170898438e-01,7.580592036247253418e-01,7.536500096321105957e-01,7.479327917098999023e-01,7.390816211700439453e-01,7.306563854217529297e-01,7.228371500968933105e-01,7.148171663284301758e-01,7.054224610328674316e-01,6.961833238601684570e-01,6.909100413322448730e-01,6.859066486358642578e-01,6.820392012596130371e-01,6.779825091361999512e-01,6.764291524887084961e-01,6.740356683731079102e-01,6.699678301811218262e-01,6.663745641708374023e-01,6.611834764480590820e-01,6.526882052421569824e-01,6.428881883621215820e-01,6.330345273017883301e-01,6.231182217597961426e-01,6.098695397377014160e-01,5.970185399055480957e-01,5.855361819267272949e-01,5.740162134170532227e-01,5.632885694503784180e-01,5.531528592109680176e-01,5.445500016212463379e-01,5.374050140380859375e-01,0.000000000000000000e+00,0.000000000000000000e+00,0.000000000000000000e+00
0.000000000000000000e+00,0.000000000000000000e+00,0.000000000000000000e+00,0.000000000000000000e+00,1.711897104978561401e-01,1.701709181070327759e-01,1.690093874931335449e-01,1.700884699821472168e-01,1.715700030326843262e-01,1.746885776519775391e-01,1.784582287073135376e-01,1.833672076463699341e-01,1.883088648319244385e-01,1.918691694736480713e-01,1.940057575702667236e-01,1.950812041759490967e-01,1.953065544366836548e-01,1.947576701641082764e-01,1.937552690505981445e-01,1.929465383291244507e-01,1.910996288061141968e-01,1.904137730598449707e-01,1.888928264379501343e-01,1.881003826856613159e-01,1.870413422584533691e-01,1.859023571014404297e-01,1.849986314773559570e-01,1.842649877071380615e-01,1.833071410655975342e-01,1.829103976488113403e-01,1.827785670757293701e-01,1.823831349611282349e-01,1.823225468397140503e-01,1.828331947326660156e-01,1.831051111221313477e-01,1.852835565805435181e-01,1.881233304738998413e-01,1.935786455869674683e-01,2.021500021219253540e-01,2.130463570356369019e-01,2.258402407169342041e-01,2.390937209129333496e-01,2.512857317924499512e-01,2.628871500492095947e-01,2.741214632987976074e-01,2.844721972942352295e-01,2.940907478332519531e-01,3.002335131168365479e-01,3.034961521625518799e-01,3.023738265037536621e-01,2.970317900180816650e-01,2.901899814605712891e-01,2.825878858566284180e-01,2.758759558200836182e-01,2.709718942642211914e-01,2.672924399375915527e-01,2.648721635341644287e-01,2.632625102996826172e-01,2.624857127666473389e-01,2.617316544055938721e-01,2.610000073909759521e-01,2.590188384056091309e-01,2.574506103992462158e-01,2.570273578166961670e-01,2.573444247245788574e-01,2.585987746715545654e-01,2.621351480484008789e-01,2.676403224468231201e-01,2.746166586875915527e-01,2.833974957466125488e-01,2.958387136459350586e-01,3.093224763870239258e-01,3.248038589954376221e-01,3.403432071208953857e-01,3.537020087242126465e-01,3.669430017471313477e-01,3.801400065422058105e-01,3.946633338928222656e-01,4.156224131584167480e-01,4.457293152809143066e-01,4.854796528816223145e-01,5.344627499580383301e-01,5.938757061958312988e-01,6.550614237785339355e-01,7.093742489814758301e-01,7.576966881752014160e-01,7.922785878181457520e-01,8.164888620376586914e-01,8.311749696731567383e-01,8.399685025215148926e-01,8.451607823371887207e-01,8.469877839088439941e-01,8.456615209579467773e-01,8.401383757591247559e-01,8.341163992881774902e-01,8.242155909538269043e-01,8.153116106986999512e-01,8.054332137107849121e-01,7.972087860107421875e-01,7.873154282569885254e-01,7.777566313743591309e-01,7.714525461196899414e-01,7.657866477966308594e-01,7.621791362762451172e-01,7.590228915214538574e-01,7.564469575881958008e-01,7.531338930130004883e-01,7.483565211296081543e-01,7.450659275054931641e-01,7.404465079307556152e-01,7.318236231803894043e-01,7.216891050338745117e-01,7.102727293968200684e-01,7.004563808441162109e-01,6.870604157447814941e-01,6.738100051879882812e-01,6.607119441032409668e-01,6.487194895744323730e-01,6.387757062911987305e-01,6.285428404808044434e-01,6.196699738502502441e-01,6.119250059127807617e-01,0.000000000000000000e+00,0.000000000000000000e+00,0.000000000000000000e+00
0.000000000000000000e+00,0.000000000000000000e+00,0.000000000000000000e+00,0.000000000000000000e+00,-2.809999976307153702e-03,-4.151515197008848190e-03,-4.576923325657844543e-03,-3.813076997175812721e-03,-2.024285728111863136e-03,1.307777711190283298e-03,5.982257891446352005e-03,1.141934469342231750e-02,1.670721359550952911e-02,2.100083231925964355e-02,2.367457747459411621e-02,2.490603365004062653e-02,2.477086149156093597e-02,2.436785772442817688e-02,2.336157858371734619e-02,2.214181795716285706e-02,2.048018202185630798e-02,1.903452910482883453e-02,1.764150895178318024e-02,1.650037802755832672e-02,1.540673058480024338e-02,1.417176518589258194e-02,1.297686249017715454e-02,1.185500063002109528e-02,1.080428622663021088e-02,1.020367350429296494e-02,9.874286130070686340e-03,9.749166667461395264e-03,9.722978807985782623e-03,1.025978755205869675e-02,1.095595769584178925e-02,1.242644432932138443e-02,1.565266586840152740e-02,2.199454605579376221e-02,3.158386424183845520e-02,4.390545561909675598e-02,5.833046510815620422e-02,7.304674386978149414e-02,8.694428950548171997e-02,1.000092923641204834e-01,1.123492717742919922e-01,1.243043914437294006e-01,1.351902484893798828e-01,1.418434977531433105e-01,1.455576866865158081e-01,1.440856456756591797e-01,1.383261531591415405e-01,1.303178966045379639e-01,1.215968430042266846e-01,1.139167621731758118e-01,1.082656756043434143e-01,1.040591895580291748e-01,1.012294590473175049e-01,9.967999905347824097e-02,9.863857179880142212e-02,9.772166609764099121e-02,9.655000269412994385e-02,9.440147131681442261e-02,9.252765029668807983e-02,9.190470725297927856e-02,9.205176681280136108e-02,9.368818253278732300e-02,9.767030179500579834e-02,1.034946888685226440e-01,1.115366667509078979e-01,1.218924969434738159e-01,1.359354853630065918e-01,1.513837575912475586e-01,1.686196774244308472e-01,1.857745200395584106e-01,2.010039985179901123e-01,2.156209945678710938e-01,2.305420041084289551e-01,2.470120042562484741e-01,2.703455090522766113e-01,3.040341436862945557e-01,3.488251566886901855e-01,4.036141335964202881e-01,4.681178629398345947e-01,5.355314612388610840e-01,5.946164131164550781e-01,6.471622586250305176e-01,6.834157109260559082e-01,7.084855437278747559e-01,7.248150110244750977e-01,7.341600060462951660e-01,7.407376766204833984e-01,7.427477836608886719e-01,7.412169575691223145e-01,7.355728149414062500e-01,7.286227941513061523e-01,7.181875705718994141e-01,7.081859707832336426e-01,6.980735659599304199e-01,6.891112327575683594e-01,6.789812445640563965e-01,6.694899797439575195e-01,6.621649861335754395e-01,6.563599705696105957e-01,6.521474719047546387e-01,6.480004191398620605e-01,6.456152200698852539e-01,6.427869796752929688e-01,6.389056444168090820e-01,6.339354515075683594e-01,6.283299922943115234e-01,6.193826794624328613e-01,6.088299751281738281e-01,5.966636538505554199e-01,5.847690701484680176e-01,5.707200169563293457e-01,5.562843084335327148e-01,5.424461960792541504e-01,5.297719240188598633e-01,5.183028578758239746e-01,5.069157481193542480e-01,4.969666898250579834e-01,4.893274903297424316e-01,0.000000000000000000e+00,0.000000000000000000e+00,0.000000000000000000e+00
0.000000000000000000e+00,0.000000000000000000e+00,0.000000000000000000e+00,0.000000000000000000e+00,3.791119530797004700e-02,3.610166907310485840e-02,3.518922999501228333e-02,3.621384501457214355e-02,3.757999837398529053e-02,4.050095006823539734e-02,4.424322396516799927e-02,4.858688637614250183e-02,5.276786908507347107e-02,5.626999959349632263e-02,5.823796615004539490e-02,5.916362255811691284e-02,5.940655246376991272e-02,5.917660892009735107e-02,5.879894644021987915e-02,5.796018242835998535e-02,5.644836649298667908e-02,5.550811439752578735e-02,5.444339290261268616e-02,5.389546975493431091e-02,5.304884538054466248e-02,5.185470357537269592e-02,5.121196061372756958e-02,5.049999803304672241e-02,4.989999905228614807e-02,4.940142855048179626e-02,4.947285726666450500e-02,4.944208264350891113e-02,4.983553290367126465e-02,5.059617012739181519e-02,5.118850991129875183e-02,5.314933508634567261e-02,5.617599934339523315e-02,6.202841177582740784e-02,7.063385844230651855e-02,8.154635876417160034e-02,9.386581182479858398e-02,1.068327873945236206e-01,1.187971457839012146e-01,1.296978592872619629e-01,1.400800049304962158e-01,1.499183028936386108e-01,1.586178094148635864e-01,1.637125015258789062e-01,1.665771901607513428e-01,1.651561558246612549e-01,1.601407825946807861e-01,1.535157859325408936e-01,1.463271081447601318e-01,1.403932422399520874e-01,1.361321657896041870e-01,1.327791959047317505e-01,1.307426989078521729e-01,1.295574903488159180e-01,1.288414299488067627e-01,1.282558292150497437e-01,1.280499994754791260e-01,1.267391145229339600e-01,1.254899948835372925e-01,1.257838159799575806e-01,1.267099976539611816e-01,1.282636374235153198e-01,1.323987841606140137e-01,1.383584290742874146e-01,1.455033272504806519e-01,1.550575047731399536e-01,1.677138656377792358e-01,1.805362552404403687e-01,1.948554813861846924e-01,2.097774296998977661e-01,2.226080000400543213e-01,2.357109934091567993e-01,2.498020082712173462e-01,2.659906744956970215e-01,2.891992926597595215e-01,3.221220672130584717e-01,3.654462099075317383e-01,4.168648123741149902e-01,4.772285521030426025e-01,5.370153784751892090e-01,5.890182256698608398e-01,6.347044706344604492e-01,6.672857403755187988e-01,6.906926035881042480e-01,7.057800292968750000e-01,7.155514955520629883e-01,7.223299741744995117e-01,7.236288785934448242e-01,7.230376601219177246e-01,7.156348228454589844e-01,7.096443772315979004e-01,6.997579932212829590e-01,6.900923848152160645e-01,6.807791590690612793e-01,6.720088124275207520e-01,6.620508432388305664e-01,6.530666351318359375e-01,6.458224654197692871e-01,6.392433047294616699e-01,6.342533230781555176e-01,6.295475363731384277e-01,6.253495812416076660e-01,6.217778325080871582e-01,6.182748079299926758e-01,6.130868196487426758e-01,6.075274348258972168e-01,5.996009111404418945e-01,5.898336172103881836e-01,5.787554383277893066e-01,5.669808983802795410e-01,5.544008612632751465e-01,5.416200160980224609e-01,5.292357206344604492e-01,5.182719230651855469e-01,5.076737999916076660e-01,4.979414343833923340e-01,4.886433184146881104e-01,4.818075001239776611e-01,0.000000000000000000e+00,0.000000000000000000e+00,0.000000000000000000e+00
0.000000000000000000e+00,0.000000000000000000e+00,0.000000000000000000e+00,0.000000000000000000e+00,1.025671660900115967e-01,1.006695479154586792e-01,9.971892088651657104e-02,1.005676910281181335e-01,1.017714291810989380e-01,1.048231720924377441e-01,1.083550006151199341e-01,1.128850877285003662e-01,1.171395108103752136e-01,1.203633323311805725e-01,1.226537302136421204e-01,1.235420703887939453e-01,1.237774118781089783e-01,1.231737434864044189e-01,1.225668415427207947e-01,1.217776313424110413e-01,1.202336326241493225e-01,1.191237717866897583e-01,1.176571696996688843e-01,1.172254681587219238e-01,1.164019256830215454e-01,1.151658818125724792e-01,1.142901927232742310e-01,1.135050058364868164e-01,1.127971485257148743e-01,1.123912259936332703e-01,1.127671450376510620e-01,1.126679182052612305e-01,1.133644655346870422e-01,1.139025539159774780e-01,1.141748949885368347e-01,1.164757758378982544e-01,1.194273307919502258e-01,1.252965927124023438e-01,1.340727210044860840e-01,1.454581767320632935e-01,1.582467406988143921e-01,1.717332601547241211e-01,1.842757165431976318e-01,1.957657188177108765e-01,2.066446393728256226e-01,2.167914658784866333e-01,2.259856015443801880e-01,2.310380041599273682e-01,2.338220477104187012e-01,2.325323075056076050e-01,2.271712869405746460e-01,2.205257862806320190e-01,2.129407823085784912e-01,2.068005353212356567e-01,2.022078335285186768e-01,1.985073089599609375e-01,1.962870359420776367e-01,1.949499994516372681e-01,1.941857188940048218e-01,1.934674978256225586e-01,1.929100006818771362e-01,1.915888190269470215e-01,1.901352852582931519e-01,1.903903037309646606e-01,1.912855803966522217e-01,1.931309103965759277e-01,1.971663683652877808e-01,2.033690661191940308e-01,2.108866572380065918e-01,2.205625027418136597e-01,2.338174283504486084e-01,2.471293658018112183e-01,2.621174156665802002e-01,2.771735489368438721e-01,2.906459867954254150e-01,3.043960034847259521e-01,3.188260197639465332e-01,3.353959918022155762e-01,3.590544760227203369e-01,3.927034437656402588e-01,4.368489682674407959e-01,4.889196455478668213e-01,5.499178767204284668e-01,6.089982390403747559e-01,6.621206998825073242e-01,7.075011134147644043e-01,7.401599884033203125e-01,7.637248635292053223e-01,7.778999805450439453e-01,7.873615026473999023e-01,7.943930625915527344e-01,7.949321866035461426e-01,7.950192689895629883e-01,7.887443900108337402e-01,7.820560336112976074e-01,7.723152041435241699e-01,7.622519731521606445e-01,7.533491849899291992e-01,7.442731857299804688e-01,7.337874770164489746e-01,7.242966890335083008e-01,7.175024747848510742e-01,7.107566595077514648e-01,7.059333324432373047e-01,7.008324861526489258e-01,6.972156763076782227e-01,6.945483088493347168e-01,6.887778639793395996e-01,6.838350296020507812e-01,6.787469387054443359e-01,6.702154278755187988e-01,6.613427400588989258e-01,6.501991152763366699e-01,6.383627057075500488e-01,6.263908743858337402e-01,6.130271553993225098e-01,6.019095182418823242e-01,5.902676582336425781e-01,5.799038410186767578e-01,5.699185729026794434e-01,5.608400106430053711e-01,5.530424714088439941e-01,0.000000000000000000e+00,0.000000000000000000e+00,0.000000000000000000e+00
0.000000000000000000e+00,0.000000000000000000e+00,0.000000000000000000e+00,0.000000000000000000e+00,1.105391010642051697e-01,1.085056066513061523e-01,1.078250780701637268e-01,1.086323112249374390e-01,1.102028563618659973e-01,1.133182495832443237e-01,1.171627417206764221e-01,1.213550791144371033e-01,1.253209859132766724e-01,1.288124918937683105e-01,1.310998350381851196e-01,1.319344788789749146e-01,1.319934427738189697e-01,1.318121403455734253e-01,1.309389472007751465e-01,1.301365345716476440e-01,1.286847293376922607e-01,1.275707483291625977e-01,1.257905662059783936e-01,1.253007501363754272e-01,1.242132708430290222e-01,1.229241192340850830e-01,1.219729408621788025e-01,1.209200024604797363e-01,1.199899986386299133e-01,1.198559179902076721e-01,1.199100017547607422e-01,1.197589561343193054e-01,1.200944632291793823e-01,1.208370178937911987e-01,1.210370212793350220e-01,1.233253329992294312e-01,1.258466541767120361e-01,1.318215876817703247e-01,1.407018303871154785e-01,1.519981920719146729e-01,1.647500097751617432e-01,1.780746430158615112e-01,1.905499994754791260e-01,2.019650042057037354e-01,2.126643955707550049e-01,2.227012217044830322e-01,2.319821864366531372e-01,2.369340062141418457e-01,2.396689802408218384e-01,2.382571697235107422e-01,2.327894866466522217e-01,2.258210629224777222e-01,2.181381583213806152e-01,2.118905484676361084e-01,2.072059512138366699e-01,2.035756707191467285e-01,2.009418904781341553e-01,1.997350007295608521e-01,1.991357058286666870e-01,1.982441693544387817e-01,1.978400051593780518e-01,1.962441205978393555e-01,1.947729438543319702e-01,1.947088241577148438e-01,1.955779343843460083e-01,1.973542422056198120e-01,2.016142457723617554e-01,2.075646966695785522e-01,2.148600071668624878e-01,2.246474921703338623e-01,2.373974174261093140e-01,2.511731088161468506e-01,2.661090493202209473e-01,2.814941704273223877e-01,2.947939932346343994e-01,3.083010017871856689e-01,3.226160109043121338e-01,3.394626677036285400e-01,3.634944856166839600e-01,3.974438011646270752e-01,4.418155252933502197e-01,4.939958751201629639e-01,5.552121400833129883e-01,6.160081624984741211e-01,6.688575148582458496e-01,7.165789008140563965e-01,7.497757077217102051e-01,7.738696336746215820e-01,7.894649505615234375e-01,7.998273968696594238e-01,8.070231080055236816e-01,8.081489205360412598e-01,8.084200024604797363e-01,8.020583987236022949e-01,7.951092123985290527e-01,7.848595976829528809e-01,7.752276062965393066e-01,7.656587958335876465e-01,7.569568157196044922e-01,7.471337318420410156e-01,7.374766469001770020e-01,7.291924953460693359e-01,7.226250171661376953e-01,7.181525230407714844e-01,7.133883833885192871e-01,7.083247900009155273e-01,7.047617435455322266e-01,7.007187008857727051e-01,6.959890723228454590e-01,6.899943351745605469e-01,6.811527609825134277e-01,6.715309023857116699e-01,6.607881784439086914e-01,6.490681767463684082e-01,6.368377208709716797e-01,6.220028400421142578e-01,6.100742816925048828e-01,5.987371802330017090e-01,5.881790518760681152e-01,5.771085619926452637e-01,5.684099793434143066e-01,5.610724687576293945e-01,0.000000000000000000e+00,0.000000000000000000e+00,0.000000000000000000e+00
0.000000000000000000e+00,0.000000000000000000e+00,0.000000000000000000e+00,0.000000000000000000e+00,6.276298314332962036e-02,6.106697022914886475e-02,6.072999909520149231e-02,6.161615252494812012e-02,6.382142752408981323e-02,6.786428391933441162e-02,7.238306850194931030e-02,7.767065614461898804e-02,8.277491480112075806e-02,8.682499825954437256e-02,8.940441161394119263e-02,9.044465422630310059e-02,9.094137698411941528e-02,9.058678150177001953e-02,8.972157537937164307e-02,8.884945511817932129e-02,8.737382292747497559e-02,8.599150925874710083e-02,8.437660336494445801e-02,8.368905633687973022e-02,8.252211660146713257e-02,8.122293651103973389e-02,8.011862635612487793e-02,7.923999428749084473e-02,7.839285582304000854e-02,7.799652963876724243e-02,7.801428437232971191e-02,7.799687981605529785e-02,7.831340283155441284e-02,7.923914492130279541e-02,7.964298129081726074e-02,8.196266740560531616e-02,8.493666350841522217e-02,9.164022654294967651e-02,1.017513647675514221e-01,1.146445423364639282e-01,1.291248798370361328e-01,1.440616250038146973e-01,1.580442935228347778e-01,1.709550023078918457e-01,1.831495165824890137e-01,1.945412307977676392e-01,2.046856135129928589e-01,2.105884999036788940e-01,2.138733267784118652e-01,2.118363976478576660e-01,2.060076892375946045e-01,1.983326226472854614e-01,1.901197284460067749e-01,1.833305507898330688e-01,1.783127039670944214e-01,1.744348704814910889e-01,1.719416230916976929e-01,1.707324981689453125e-01,1.699071377515792847e-01,1.692133247852325439e-01,1.685599982738494873e-01,1.669455915689468384e-01,1.653147041797637939e-01,1.654782295227050781e-01,1.665744185447692871e-01,1.684448421001434326e-01,1.730615198612213135e-01,1.798028200864791870e-01,1.880400031805038452e-01,1.990824937820434570e-01,2.132461220026016235e-01,2.282987534999847412e-01,2.449312955141067505e-01,2.614583671092987061e-01,2.761059999465942383e-01,2.906970083713531494e-01,3.064120113849639893e-01,3.245093226432800293e-01,3.500482738018035889e-01,3.860079348087310791e-01,4.338851571083068848e-01,4.897217452526092529e-01,5.548457503318786621e-01,6.176106929779052734e-01,6.730014681816101074e-01,7.214378118515014648e-01,7.559185624122619629e-01,7.806807756423950195e-01,7.970100045204162598e-01,8.071662783622741699e-01,8.130946159362792969e-01,8.143399953842163086e-01,8.138353824615478516e-01,8.073655962944030762e-01,8.014311790466308594e-01,7.905271649360656738e-01,7.807047963142395020e-01,7.703943848609924316e-01,7.613192200660705566e-01,7.507720589637756348e-01,7.411633133888244629e-01,7.332174777984619141e-01,7.274566292762756348e-01,7.212991714477539062e-01,7.162370681762695312e-01,7.125613093376159668e-01,7.090656757354736328e-01,7.041969895362854004e-01,6.993686556816101074e-01,6.935200095176696777e-01,6.844136714935302734e-01,6.746100187301635742e-01,6.632481813430786133e-01,6.507444977760314941e-01,6.372040510177612305e-01,6.230056881904602051e-01,6.099952459335327148e-01,5.977019071578979492e-01,5.873252153396606445e-01,5.756700038909912109e-01,5.652633309364318848e-01,5.576075315475463867e-01,0.000000000000000000e+00,0.000000000000000000e+00,0.000000000000000000e+00
0.000000000000000000e+00,0.000000000000000000e+00,0.000000000000000000e+00,0.000000000000000000e+00,3.519029915332794189e-02,3.334151208400726318e-02,3.217461705207824707e-02,3.275384753942489624e-02,3.392000123858451843e-02,3.647571429610252380e-02,3.975322470068931580e-02,4.368885233998298645e-02,4.745016247034072876e-02,5.063916742801666260e-02,5.250559374690055847e-02,5.319396778941154480e-02,5.344413965940475464e-02,5.305196344852447510e-02,5.238842219114303589e-02,5.177072808146476746e-02,5.042818188667297363e-02,4.922566190361976624e-02,4.817905649542808533e-02,4.738132283091545105e-02,4.673596099019050598e-02,4.578470438718795776e-02,4.494784027338027954e-02,4.430999979376792908e-02,4.369857162237167358e-02,4.344877600669860840e-02,4.346571490168571472e-02,4.359104111790657043e-02,4.387680813670158386e-02,4.461531713604927063e-02,4.518893733620643616e-02,4.713777825236320496e-02,4.989600181579589844e-02,5.552431568503379822e-02,6.357477605342864990e-02,7.399272918701171875e-02,8.596186339855194092e-02,9.845488518476486206e-02,1.101885735988616943e-01,1.208021417260169983e-01,1.309456080198287964e-01,1.403760910034179688e-01,1.491195112466812134e-01,1.538619995117187500e-01,1.568089723587036133e-01,1.554741114377975464e-01,1.506894975900650024e-01,1.444779038429260254e-01,1.373731493949890137e-01,1.315610855817794800e-01,1.272486448287963867e-01,1.239670291543006897e-01,1.216454058885574341e-01,1.204899996519088745e-01,1.197542846202850342e-01,1.195133328437805176e-01,1.191200017929077148e-01,1.177161708474159241e-01,1.168164759874343872e-01,1.169458776712417603e-01,1.179276481270790100e-01,1.193890944123268127e-01,1.231581792235374451e-01,1.292765587568283081e-01,1.363500058650970459e-01,1.452749967575073242e-01,1.570832282304763794e-01,1.699187457561492920e-01,1.844438612461090088e-01,1.984470933675765991e-01,2.113700062036514282e-01,2.239120006561279297e-01,2.375819981098175049e-01,2.537213265895843506e-01,2.763786315917968750e-01,3.085879385471343994e-01,3.519727587699890137e-01,4.032113552093505859e-01,4.638442993164062500e-01,5.253378748893737793e-01,5.797439217567443848e-01,6.274655461311340332e-01,6.622599959373474121e-01,6.866396069526672363e-01,7.027699947357177734e-01,7.136474251747131348e-01,7.195191979408264160e-01,7.207755446434020996e-01,7.212377190589904785e-01,7.136971950531005859e-01,7.076292037963867188e-01,6.976500153541564941e-01,6.870071887969970703e-01,6.774995923042297363e-01,6.676827669143676758e-01,6.568129062652587891e-01,6.474599838256835938e-01,6.392199993133544922e-01,6.330983042716979980e-01,6.276866197586059570e-01,6.223150491714477539e-01,6.183626055717468262e-01,6.151474118232727051e-01,6.112204194068908691e-01,6.060345768928527832e-01,6.000926494598388672e-01,5.915945172309875488e-01,5.820308923721313477e-01,5.701236724853515625e-01,5.590400099754333496e-01,5.457854866981506348e-01,5.321214199066162109e-01,5.200895071029663086e-01,5.089809298515319824e-01,4.984247684478759766e-01,4.885614216327667236e-01,4.793300032615661621e-01,4.719949960708618164e-01,0.000000000000000000e+00,0.000000000000000000e+00,0.000000000000000000e+00
0.000000000000000000e+00,0.000000000000000000e+00,0.000000000000000000e+00,0.000000000000000000e+00,1.765014789998531342e-02,1.743575744330883026e-02,1.736953854560852051e-02,1.757307723164558411e-02,1.955000124871730804e-02,2.291190437972545624e-02,2.704677544534206390e-02,3.144475445151329041e-02,3.597196936607360840e-02,3.946916759014129639e-02,4.175881296396255493e-02,4.274982586503028870e-02,4.305620864033699036e-02,4.285821318626403809e-02,4.212105274200439453e-02,4.124981537461280823e-02,4.004363715648651123e-02,3.840471804141998291e-02,3.688603639602661133e-02,3.606716915965080261e-02,3.503134474158287048e-02,3.400529175996780396e-02,3.308431431651115417e-02,3.222499787807464600e-02,3.174571320414543152e-02,3.143020346760749817e-02,3.113285638391971588e-02,3.141999989748001099e-02,3.170872107148170471e-02,3.210595995187759399e-02,3.313829749822616577e-02,3.490778058767318726e-02,3.817733377218246460e-02,4.450613632798194885e-02,5.365909263491630554e-02,6.562909483909606934e-02,7.920441776514053345e-02,9.311185777187347412e-02,1.060914248228073120e-01,1.180271431803703308e-01,1.291882991790771484e-01,1.398824304342269897e-01,1.497224420309066772e-01,1.553990095853805542e-01,1.583979427814483643e-01,1.566325575113296509e-01,1.515623033046722412e-01,1.444084197282791138e-01,1.365984231233596802e-01,1.299389153718948364e-01,1.251340508460998535e-01,1.213481128215789795e-01,1.188359484076499939e-01,1.176024973392486572e-01,1.167742833495140076e-01,1.161658391356468201e-01,1.156900003552436829e-01,1.145370602607727051e-01,1.132482364773750305e-01,1.130479425191879272e-01,1.142997071146965027e-01,1.161715164780616760e-01,1.202699989080429077e-01,1.264112442731857300e-01,1.340100020170211792e-01,1.441525071859359741e-01,1.572164446115493774e-01,1.720824986696243286e-01,1.874087154865264893e-01,2.034770846366882324e-01,2.175000011920928955e-01,2.316190004348754883e-01,2.466219961643218994e-01,2.639079988002777100e-01,2.889855206012725830e-01,3.247075974941253662e-01,3.711675703525543213e-01,4.262093007564544678e-01,4.898999929428100586e-01,5.540038943290710449e-01,6.095414161682128906e-01,6.583866477012634277e-01,6.925542950630187988e-01,7.169936895370483398e-01,7.325950264930725098e-01,7.416303753852844238e-01,7.475661635398864746e-01,7.491489052772521973e-01,7.478938102722167969e-01,7.420344352722167969e-01,7.335439920425415039e-01,7.240464091300964355e-01,7.137228250503540039e-01,7.031064033508300781e-01,6.935088038444519043e-01,6.837966442108154297e-01,6.740666627883911133e-01,6.655625104904174805e-01,6.593183279037475586e-01,6.533908843994140625e-01,6.491879224777221680e-01,6.450004577636718750e-01,6.424351930618286133e-01,6.372399926185607910e-01,6.314868330955505371e-01,6.252804398536682129e-01,6.171854734420776367e-01,6.062836050987243652e-01,5.956417918205261230e-01,5.831381678581237793e-01,5.696191191673278809e-01,5.560371279716491699e-01,5.438157320022583008e-01,5.313204526901245117e-01,5.198937654495239258e-01,5.098371505737304688e-01,4.999600052833557129e-01,4.930649995803833008e-01,0.000000000000000000e+00,0.000000000000000000e+00,0.000000000000000000e+00
0.000000000000000000e+00,0.000000000000000000e+00,0.000000000000000000e+00,0.000000000000000000e+00,6.410881131887435913e-02,6.379893422126770020e-02,6.332184374332427979e-02,6.429384648799896240e-02,6.625142693519592285e-02,6.936396658420562744e-02,7.349516451358795166e-02,7.797425985336303711e-02,8.241754025220870972e-02,8.585249632596969604e-02,8.816525340080261230e-02,8.925879001617431641e-02,8.943551778793334961e-02,8.895321190357208252e-02,8.834999799728393555e-02,8.739382028579711914e-02,8.612545579671859741e-02,8.456207066774368286e-02,8.327377587556838989e-02,8.230169862508773804e-02,8.118037879467010498e-02,7.994764298200607300e-02,7.912156730890274048e-02,7.831500470638275146e-02,7.776857167482376099e-02,7.738020271062850952e-02,7.709714025259017944e-02,7.718187570571899414e-02,7.772361487150192261e-02,7.835893332958221436e-02,7.922234386205673218e-02,8.095777779817581177e-02,8.375865966081619263e-02,8.986272662878036499e-02,9.912204742431640625e-02,1.110081821680068970e-01,1.242476701736450195e-01,1.378192901611328125e-01,1.505142748355865479e-01,1.620149910449981689e-01,1.726936548948287964e-01,1.831517070531845093e-01,1.923565864562988281e-01,1.979964971542358398e-01,2.003423124551773071e-01,1.990994811058044434e-01,1.939974278211593628e-01,1.873521059751510620e-01,1.798102557659149170e-01,1.736686378717422485e-01,1.690802723169326782e-01,1.652132421731948853e-01,1.628321707248687744e-01,1.618524938821792603e-01,1.609457135200500488e-01,1.601966619491577148e-01,1.592800021171569824e-01,1.583503037691116333e-01,1.569323539733886719e-01,1.569538265466690063e-01,1.581817716360092163e-01,1.596569716930389404e-01,1.636109054088592529e-01,1.699056178331375122e-01,1.776533275842666626e-01,1.871625036001205444e-01,1.998993605375289917e-01,2.142556309700012207e-01,2.293570935726165771e-01,2.442196756601333618e-01,2.583400011062622070e-01,2.715159952640533447e-01,2.857240140438079834e-01,3.019353449344635010e-01,3.256155252456665039e-01,3.593510389328002930e-01,4.030744731426239014e-01,4.544238150119781494e-01,5.138307213783264160e-01,5.729528665542602539e-01,6.250531673431396484e-01,6.699799895286560059e-01,7.027771472930908203e-01,7.254866957664489746e-01,7.398149967193603516e-01,7.484470009803771973e-01,7.540630698204040527e-01,7.551644444465637207e-01,7.547161579132080078e-01,7.478243708610534668e-01,7.420023679733276367e-01,7.322167754173278809e-01,7.221143841743469238e-01,7.123115658760070801e-01,7.031915783882141113e-01,6.937128901481628418e-01,6.836733222007751465e-01,6.760975122451782227e-01,6.704316139221191406e-01,6.650091409683227539e-01,6.609866619110107422e-01,6.578187346458435059e-01,6.547099947929382324e-01,6.497139334678649902e-01,6.443254351615905762e-01,6.394234895706176758e-01,6.314236521720886230e-01,6.216890811920166016e-01,6.117181777954101562e-01,6.001327037811279297e-01,5.879845619201660156e-01,5.751714706420898438e-01,5.634052753448486328e-01,5.522052049636840820e-01,5.416880846023559570e-01,5.328871607780456543e-01,5.236300230026245117e-01,5.169249773025512695e-01,0.000000000000000000e+00,0.000000000000000000e+00,0.000000000000000000e+00
0.000000000000000000e+00,0.000000000000000000e+00,0.000000000000000000e+00,0.000000000000000000e+00,2.918850630521774292e-02,2.927878871560096741e-02,2.855569310486316681e-02,2.905230782926082611e-02,3.059714287519454956e-02,3.348904475569725037e-02,3.728903084993362427e-02,4.135524481534957886e-02,4.537885263562202454e-02,4.853416606783866882e-02,5.064118653535842896e-02,5.160293355584144592e-02,5.201827734708786011e-02,5.158643051981925964e-02,5.101579055190086365e-02,5.031436309218406677e-02,4.919945448637008667e-02,4.774868115782737732e-02,4.657302051782608032e-02,4.581905901432037354e-02,4.473000019788742065e-02,4.379235208034515381e-02,4.304176568984985352e-02,4.225499927997589111e-02,4.180857166647911072e-02,4.155591875314712524e-02,4.144714400172233582e-02,4.157646000385284424e-02,4.206255450844764709e-02,4.259744659066200256e-02,4.345234110951423645e-02,4.522822052240371704e-02,4.802266508340835571e-02,5.385704338550567627e-02,6.213818117976188660e-02,7.283545285463333130e-02,8.496348559856414795e-02,9.746209532022476196e-02,1.089128553867340088e-01,1.193571388721466064e-01,1.291609704494476318e-01,1.385404914617538452e-01,1.469219624996185303e-01,1.516785025596618652e-01,1.541594862937927246e-01,1.532638520002365112e-01,1.487617939710617065e-01,1.426768451929092407e-01,1.358684152364730835e-01,1.302399933338165283e-01,1.258913576602935791e-01,1.223843246698379517e-01,1.201883777976036072e-01,1.188250035047531128e-01,1.182757169008255005e-01,1.177716627717018127e-01,1.169499978423118591e-01,1.159982383251190186e-01,1.146552935242652893e-01,1.146173551678657532e-01,1.158752962946891785e-01,1.175881773233413696e-01,1.210763603448867798e-01,1.267096847295761108e-01,1.335766613483428955e-01,1.424050033092498779e-01,1.539593487977981567e-01,1.667306274175643921e-01,1.801161319017410278e-01,1.940722614526748657e-01,2.061399966478347778e-01,2.181670069694519043e-01,2.310419976711273193e-01,2.459666579961776733e-01,2.675096392631530762e-01,2.976203560829162598e-01,3.369755148887634277e-01,3.832606673240661621e-01,4.372421503067016602e-01,4.913617968559265137e-01,5.384435653686523438e-01,5.793377757072448730e-01,6.092543005943298340e-01,6.305510997772216797e-01,6.436350345611572266e-01,6.516803503036499023e-01,6.568554043769836426e-01,6.582655906677246094e-01,6.574161648750305176e-01,6.518067717552185059e-01,6.449452042579650879e-01,6.369659900665283203e-01,6.286640167236328125e-01,6.199160218238830566e-01,6.115204095840454102e-01,6.028066873550415039e-01,5.939033627510070801e-01,5.866000056266784668e-01,5.813033580780029297e-01,5.764533281326293945e-01,5.730545520782470703e-01,5.685043931007385254e-01,5.657935142517089844e-01,5.616939067840576172e-01,5.570822954177856445e-01,5.520482659339904785e-01,5.453445315361022949e-01,5.369917750358581543e-01,5.277545452117919922e-01,5.178618431091308594e-01,5.067132115364074707e-01,4.957914352416992188e-01,4.858676195144653320e-01,4.762752354145050049e-01,4.667304754257202148e-01,4.588557183742523193e-01,4.514800012111663818e-01,4.454424977302551270e-01,0.000000000000000000e+00,0.000000000000000000e+00,0.000000000000000000e+00
0.000000000000000000e+00,0.000000000000000000e+00,0.000000000000000000e+00,0.000000000000000000e+00,6.629566848278045654e-02,6.661196798086166382e-02,6.649553775787353516e-02,6.704153865575790405e-02,6.905999779701232910e-02,7.232651114463806152e-02,7.636871188879013062e-02,8.099246025085449219e-02,8.575573563575744629e-02,8.924083411693572998e-02,9.145508706569671631e-02,9.254121035337448120e-02,9.296827018260955811e-02,9.258678555488586426e-02,9.216894209384918213e-02,9.124345332384109497e-02,9.017599374055862427e-02,8.888547122478485107e-02,8.755245804786682129e-02,8.666943013668060303e-02,8.550288528203964233e-02,8.429764211177825928e-02,8.364411443471908569e-02,8.266000449657440186e-02,8.215285837650299072e-02,8.182796090841293335e-02,8.151714503765106201e-02,8.167125284671783447e-02,8.213999867439270020e-02,8.267658948898315430e-02,8.348340541124343872e-02,8.530488610267639160e-02,8.825466781854629517e-02,9.423863887786865234e-02,1.031084060668945312e-01,1.149418130517005920e-01,1.282274425029754639e-01,1.420079022645950317e-01,1.546371430158615112e-01,1.662707030773162842e-01,1.771356016397476196e-01,1.881168186664581299e-01,1.977802515029907227e-01,2.032860070466995239e-01,2.057687193155288696e-01,2.044087201356887817e-01,1.993574351072311401e-01,1.923573613166809082e-01,1.845602691173553467e-01,1.781426966190338135e-01,1.736948639154434204e-01,1.699694544076919556e-01,1.675181090831756592e-01,1.662124991416931152e-01,1.654885709285736084e-01,1.649516671895980835e-01,1.641400009393692017e-01,1.631382405757904053e-01,1.617511808872222900e-01,1.615391075611114502e-01,1.628302931785583496e-01,1.646445393562316895e-01,1.685036420822143555e-01,1.746668666601181030e-01,1.822866648435592651e-01,1.921900063753128052e-01,2.052661180496215820e-01,2.193268686532974243e-01,2.350019365549087524e-01,2.508490383625030518e-01,2.646659910678863525e-01,2.783440053462982178e-01,2.928780019283294678e-01,3.096926808357238770e-01,3.343286216259002686e-01,3.697848320007324219e-01,4.158027768135070801e-01,4.700968861579895020e-01,5.334185957908630371e-01,5.958632230758666992e-01,6.509143114089965820e-01,6.984189152717590332e-01,7.336100339889526367e-01,7.581266760826110840e-01,7.737599611282348633e-01,7.831311225891113281e-01,7.894107699394226074e-01,7.905022501945495605e-01,7.902815341949462891e-01,7.828583717346191406e-01,7.757707834243774414e-01,7.660812139511108398e-01,7.558164000511169434e-01,7.468523979187011719e-01,7.367011904716491699e-01,7.267804145812988281e-01,7.170400023460388184e-01,7.086650133132934570e-01,7.024933099746704102e-01,6.973674893379211426e-01,6.923108100891113281e-01,6.876534819602966309e-01,6.847882270812988281e-01,6.803295612335205078e-01,6.748381853103637695e-01,6.687608957290649414e-01,6.606572866439819336e-01,6.501300334930419922e-01,6.392182111740112305e-01,6.271654367446899414e-01,6.136109232902526855e-01,6.000771522521972656e-01,5.880014300346374512e-01,5.756090283393859863e-01,5.638847947120666504e-01,5.542414188385009766e-01,5.447833538055419922e-01,5.372599959373474121e-01,0.000000000000000000e+00,0.000000000000000000e+00,0.000000000000000000e+00
0.000000000000000000e+00,0.000000000000000000e+00,0.000000000000000000e+00,0.000000000000000000e+00,6.990596652030944824e-02,6.970863789319992065e-02,6.884953379631042480e-02,6.955153495073318481e-02,7.126714289188385010e-02,7.431491464376449585e-02,7.853354513645172119e-02,8.314606547355651855e-02,8.771000057458877563e-02,9.098250418901443481e-02,9.317746013402938843e-02,9.408379346132278442e-02,9.430741518735885620e-02,9.338481724262237549e-02,9.247526526451110840e-02,9.139745682477951050e-02,8.986363559961318970e-02,8.821623027324676514e-02,8.659396320581436157e-02,8.553811162710189819e-02,8.390269428491592407e-02,8.243940770626068115e-02,8.142999559640884399e-02,8.031499385833740234e-02,7.955714315176010132e-02,7.899163663387298584e-02,7.847999781370162964e-02,7.852187752723693848e-02,7.875723391771316528e-02,7.938467711210250854e-02,8.036978542804718018e-02,8.202221989631652832e-02,8.500266820192337036e-02,9.174681454896926880e-02,1.015640944242477417e-01,1.141481772065162659e-01,1.282672137022018433e-01,1.430332511663436890e-01,1.566400080919265747e-01,1.687385737895965576e-01,1.802868247032165527e-01,1.913941353559494019e-01,2.011004835367202759e-01,2.069769948720932007e-01,2.101123183965682983e-01,2.084997445344924927e-01,2.032869160175323486e-01,1.958710551261901855e-01,1.878292113542556763e-01,1.809702664613723755e-01,1.760718822479248047e-01,1.721426993608474731e-01,1.696129739284515381e-01,1.680025011301040649e-01,1.673185825347900391e-01,1.665174961090087891e-01,1.656100004911422729e-01,1.646288335323333740e-01,1.630552858114242554e-01,1.628482341766357422e-01,1.641547083854675293e-01,1.663503050804138184e-01,1.703221201896667480e-01,1.769649982452392578e-01,1.852033287286758423e-01,1.953125000000000000e-01,2.088664472103118896e-01,2.238031327724456787e-01,2.397864460945129395e-01,2.561038732528686523e-01,2.702140212059020996e-01,2.843219935894012451e-01,2.993060052394866943e-01,3.160746693611145020e-01,3.406124114990234375e-01,3.754644989967346191e-01,4.203734397888183594e-01,4.724289774894714355e-01,5.332307219505310059e-01,5.927988886833190918e-01,6.441878676414489746e-01,6.885610818862915039e-01,7.213214039802551270e-01,7.441166639328002930e-01,7.588099837303161621e-01,7.670859098434448242e-01,7.726969122886657715e-01,7.743377685546875000e-01,7.731668949127197266e-01,7.668347954750061035e-01,7.606156468391418457e-01,7.511947751045227051e-01,7.417168021202087402e-01,7.330263853073120117e-01,7.241199612617492676e-01,7.143625020980834961e-01,7.044333219528198242e-01,6.975899934768676758e-01,6.921633481979370117e-01,6.865108609199523926e-01,6.828171014785766602e-01,6.788651943206787109e-01,6.767282485961914062e-01,6.723034977912902832e-01,6.663063764572143555e-01,6.604347825050354004e-01,6.533390879631042480e-01,6.434263586997985840e-01,6.331009268760681152e-01,6.211282014846801758e-01,6.091668009757995605e-01,5.959442853927612305e-01,5.839314460754394531e-01,5.731276273727416992e-01,5.636304616928100586e-01,5.541300177574157715e-01,5.447400212287902832e-01,5.372025370597839355e-01,0.000000000000000000e+00,0.000000000000000000e+00,0.000000000000000000e+00
0.000000000000000000e+00,0.000000000000000000e+00,0.000000000000000000e+00,0.000000000000000000e+00,2.003388106822967529e-02,1.895348541438579559e-02,1.809092238545417786e-02,1.806923188269138336e-02,1.950285769999027252e-02,2.239492163062095642e-02,2.597774192690849304e-02,2.985672093927860260e-02,3.384360671043395996e-02,3.710916638374328613e-02,3.881423920392990112e-02,3.966534510254859924e-02,3.948534280061721802e-02,3.891839459538459778e-02,3.846315667033195496e-02,3.777436167001724243e-02,3.649345785379409790e-02,3.513641282916069031e-02,3.382433950901031494e-02,3.306056559085845947e-02,3.229903802275657654e-02,3.134823590517044067e-02,3.037333302199840546e-02,2.965000085532665253e-02,2.919285744428634644e-02,2.904959209263324738e-02,2.897428534924983978e-02,2.888604067265987396e-02,2.947425656020641327e-02,2.991851046681404114e-02,3.089936263859272003e-02,3.288555517792701721e-02,3.602066636085510254e-02,4.166954383254051208e-02,5.010908842086791992e-02,6.125181913375854492e-02,7.412860542535781860e-02,8.722302317619323730e-02,9.938000142574310303e-02,1.104371398687362671e-01,1.203982904553413391e-01,1.303600072860717773e-01,1.395580470561981201e-01,1.450545042753219604e-01,1.483307778835296631e-01,1.475184708833694458e-01,1.431553810834884644e-01,1.364231556653976440e-01,1.286294758319854736e-01,1.222383752465248108e-01,1.175132393836975098e-01,1.139494627714157104e-01,1.114724352955818176e-01,1.102550029754638672e-01,1.094257161021232605e-01,1.087791696190834045e-01,1.077399998903274536e-01,1.065500006079673767e-01,1.052729412913322449e-01,1.052641123533248901e-01,1.060791164636611938e-01,1.080348491668701172e-01,1.118593961000442505e-01,1.177140623331069946e-01,1.249300017952919006e-01,1.345075070858001709e-01,1.465890258550643921e-01,1.603106260299682617e-01,1.748354882001876831e-01,1.898838728666305542e-01,2.035479992628097534e-01,2.165739983320236206e-01,2.305800020694732666e-01,2.462526708841323853e-01,2.687810361385345459e-01,3.009320795536041260e-01,3.432203531265258789e-01,3.934944868087768555e-01,4.528421461582183838e-01,5.112395882606506348e-01,5.637760758399963379e-01,6.085999608039855957e-01,6.413056850433349609e-01,6.634737253189086914e-01,6.780599951744079590e-01,6.866677999496459961e-01,6.913853883743286133e-01,6.928544044494628906e-01,6.920476555824279785e-01,6.862831711769104004e-01,6.792820096015930176e-01,6.710292100906372070e-01,6.612600088119506836e-01,6.513348221778869629e-01,6.429932117462158203e-01,6.337012648582458496e-01,6.246466636657714844e-01,6.177424788475036621e-01,6.122766733169555664e-01,6.067875027656555176e-01,6.027346253395080566e-01,5.986391305923461914e-01,5.960608720779418945e-01,5.926522016525268555e-01,5.879150032997131348e-01,5.813387036323547363e-01,5.739218592643737793e-01,5.647690892219543457e-01,5.550763607025146484e-01,5.440163612365722656e-01,5.323899984359741211e-01,5.192371606826782227e-01,5.088823437690734863e-01,4.989204704761505127e-01,4.884628653526306152e-01,4.796200096607208252e-01,4.720500111579895020e-01,4.665250182151794434e-01,0.000000000000000000e+00,0.000000000000000000e+00,0.000000000000000000e+00
0.000000000000000000e+00,0.000000000000000000e+00,0.000000000000000000e+00,0.000000000000000000e+00,5.728179216384887695e-02,5.666939541697502136e-02,5.665276944637298584e-02,5.744615197181701660e-02,5.964285507798194885e-02,6.288285553455352783e-02,6.712935119867324829e-02,7.170606404542922974e-02,7.649032771587371826e-02,8.032416552305221558e-02,8.268728852272033691e-02,8.397500216960906982e-02,8.393517136573791504e-02,8.354785293340682983e-02,8.296211063861846924e-02,8.231218159198760986e-02,8.099491149187088013e-02,7.969528436660766602e-02,7.855245471000671387e-02,7.771924883127212524e-02,7.692769169807434082e-02,7.588176429271697998e-02,7.484862953424453735e-02,7.422000169754028320e-02,7.361286133527755737e-02,7.345918565988540649e-02,7.342285662889480591e-02,7.320728898048400879e-02,7.403510808944702148e-02,7.463829964399337769e-02,7.527702301740646362e-02,7.743111252784729004e-02,8.006332814693450928e-02,8.599659055471420288e-02,9.509614109992980957e-02,1.067309081554412842e-01,1.201330199837684631e-01,1.338567435741424561e-01,1.466600000858306885e-01,1.585378497838973999e-01,1.696724444627761841e-01,1.802297532558441162e-01,1.897438913583755493e-01,1.956735104322433472e-01,1.985971778631210327e-01,1.975984573364257812e-01,1.928112804889678955e-01,1.858636885881423950e-01,1.782494783401489258e-01,1.718289256095886230e-01,1.672802716493606567e-01,1.634548604488372803e-01,1.610345840454101562e-01,1.600299924612045288e-01,1.589457243680953979e-01,1.579466611146926880e-01,1.570899933576583862e-01,1.561346948146820068e-01,1.544788330793380737e-01,1.544279307126998901e-01,1.552217602729797363e-01,1.571899950504302979e-01,1.611763685941696167e-01,1.671240627765655518e-01,1.751033365726470947e-01,1.854474991559982300e-01,1.981667727231979370e-01,2.129543721675872803e-01,2.289183884859085083e-01,2.447803318500518799e-01,2.593640089035034180e-01,2.728549838066101074e-01,2.874700129032135010e-01,3.039033412933349609e-01,3.277451694011688232e-01,3.623193204402923584e-01,4.077827632427215576e-01,4.631489515304565430e-01,5.278692841529846191e-01,5.922288894653320312e-01,6.490060687065124512e-01,6.982477903366088867e-01,7.336757183074951172e-01,7.594825625419616699e-01,7.750849723815917969e-01,7.844170331954956055e-01,7.900453805923461914e-01,7.920655608177185059e-01,7.909669280052185059e-01,7.839620113372802734e-01,7.761608362197875977e-01,7.658984065055847168e-01,7.556951642036437988e-01,7.452552318572998047e-01,7.361184358596801758e-01,7.252333164215087891e-01,7.150066494941711426e-01,7.082124948501586914e-01,7.019349932670593262e-01,6.969550251960754395e-01,6.919516324996948242e-01,6.881774067878723145e-01,6.851578354835510254e-01,6.813160777091979980e-01,6.753463745117187500e-01,6.691665053367614746e-01,6.608991026878356934e-01,6.508373022079467773e-01,6.390500068664550781e-01,6.267372965812683105e-01,6.135095357894897461e-01,5.991914272308349609e-01,5.864661931991577148e-01,5.745005011558532715e-01,5.629009604454040527e-01,5.524600148200988770e-01,5.437166690826416016e-01,5.361874699592590332e-01,0.000000000000000000e+00,0.000000000000000000e+00,0.000000000000000000e+00
0.000000000000000000e+00,0.000000000000000000e+00,0.000000000000000000e+00,0.000000000000000000e+00,-1.123940292745828629e-02,-1.149409078061580658e-02,-1.189923100173473358e-02,-1.135692279785871506e-02,-9.671428240835666656e-03,-6.632380653172731400e-03,-2.713548252359032631e-03,1.306229503825306892e-03,5.560655612498521805e-03,9.181666187942028046e-03,1.127694919705390930e-02,1.211862079799175262e-02,1.216793060302734375e-02,1.192339323461055756e-02,1.157579012215137482e-02,1.097145490348339081e-02,1.008109096437692642e-02,8.946226909756660461e-03,7.802264299243688583e-03,6.916981190443038940e-03,6.149423308670520782e-03,5.478235427290201187e-03,4.863529466092586517e-03,4.195000045001506805e-03,3.849999979138374329e-03,3.786122426390647888e-03,3.792857052758336067e-03,3.813124960288405418e-03,4.611489363014698029e-03,5.362978670746088028e-03,6.163829937577247620e-03,7.859777659177780151e-03,1.083466596901416779e-02,1.623727194964885712e-02,2.442818135023117065e-02,3.489545360207557678e-02,4.704860597848892212e-02,5.939697474241256714e-02,7.086571305990219116e-02,8.161000162363052368e-02,9.143195301294326782e-02,1.007926836609840393e-01,1.091643944382667542e-01,1.143459975719451904e-01,1.175453886389732361e-01,1.169071793556213379e-01,1.126912832260131836e-01,1.068342104554176331e-01,1.000389456748962402e-01,9.441540390253067017e-02,9.030891954898834229e-02,8.721108734607696533e-02,8.512189239263534546e-02,8.392250537872314453e-02,8.312571793794631958e-02,8.247999846935272217e-02,8.196000009775161743e-02,8.072499930858612061e-02,7.927705347537994385e-02,7.917823642492294312e-02,7.997823506593704224e-02,8.199484646320343018e-02,8.564939349889755249e-02,9.109468758106231689e-02,9.815999865531921387e-02,1.077474951744079590e-01,1.194022595882415771e-01,1.328262388706207275e-01,1.467496752738952637e-01,1.612812876701354980e-01,1.744800060987472534e-01,1.865569949150085449e-01,1.996980011463165283e-01,2.144359946250915527e-01,2.361827492713928223e-01,2.676865458488464355e-01,3.093231022357940674e-01,3.596051931381225586e-01,4.186757206916809082e-01,4.780421257019042969e-01,5.314636230468750000e-01,5.764766931533813477e-01,6.100542545318603516e-01,6.332640647888183594e-01,6.479099988937377930e-01,6.566810607910156250e-01,6.610476970672607422e-01,6.627722382545471191e-01,6.613430976867675781e-01,6.539936065673828125e-01,6.472396254539489746e-01,6.382171511650085449e-01,6.284592151641845703e-01,6.181812286376953125e-01,6.092475652694702148e-01,5.992362499237060547e-01,5.897533297538757324e-01,5.833774805068969727e-01,5.772766470909118652e-01,5.724066495895385742e-01,5.688270926475524902e-01,5.655330419540405273e-01,5.618613362312316895e-01,5.583739280700683594e-01,5.530977249145507812e-01,5.474282503128051758e-01,5.397354364395141602e-01,5.300409197807312012e-01,5.192818045616149902e-01,5.080236792564392090e-01,4.957186281681060791e-01,4.825657308101654053e-01,4.709247648715972900e-01,4.604485630989074707e-01,4.500304758548736572e-01,4.403914213180541992e-01,4.321900010108947754e-01,4.257375001907348633e-01,0.000000000000000000e+00,0.000000000000000000e+00,0.000000000000000000e+00
0.000000000000000000e+00,0.000000000000000000e+00,0.000000000000000000e+00,0.000000000000000000e+00,6.584417819976806641e-02,6.507363915443420410e-02,6.505385041236877441e-02,6.559615582227706909e-02,6.762713938951492310e-02,7.082364708185195923e-02,7.478903234004974365e-02,7.925852388143539429e-02,8.359688520431518555e-02,8.709166198968887329e-02,8.937712013721466064e-02,9.051603078842163086e-02,9.057483077049255371e-02,9.035374969244003296e-02,9.001579135656356812e-02,8.942109346389770508e-02,8.814781159162521362e-02,8.692999929189682007e-02,8.586811274290084839e-02,8.520471304655075073e-02,8.436884731054306030e-02,8.341764658689498901e-02,8.256784826517105103e-02,8.194500207901000977e-02,8.158285915851593018e-02,8.132591843605041504e-02,8.118857443332672119e-02,8.115229755640029907e-02,8.216276764869689941e-02,8.267851173877716064e-02,8.339510858058929443e-02,8.563400059938430786e-02,8.850866556167602539e-02,9.409999847412109375e-02,1.026368141174316406e-01,1.138618215918540955e-01,1.268351227045059204e-01,1.398095339536666870e-01,1.518942862749099731e-01,1.632835716009140015e-01,1.734860986471176147e-01,1.833834201097488403e-01,1.927687823772430420e-01,1.981710046529769897e-01,2.012502551078796387e-01,2.003966718912124634e-01,1.958833336830139160e-01,1.893010586500167847e-01,1.819289475679397583e-01,1.756453961133956909e-01,1.710978299379348755e-01,1.674778312444686890e-01,1.651143282651901245e-01,1.642125099897384644e-01,1.634657084941864014e-01,1.627091765403747559e-01,1.617300063371658325e-01,1.609664708375930786e-01,1.592917740345001221e-01,1.591076403856277466e-01,1.600473523139953613e-01,1.619499921798706055e-01,1.657566726207733154e-01,1.719159334897994995e-01,1.792533397674560547e-01,1.886675059795379639e-01,2.005622535943984985e-01,2.142137438058853149e-01,2.291958183050155640e-01,2.445267736911773682e-01,2.579739987850189209e-01,2.708309888839721680e-01,2.846640050411224365e-01,3.004493415355682373e-01,3.232986330986022949e-01,3.559896647930145264e-01,3.990510404109954834e-01,4.505851864814758301e-01,5.110906958580017090e-01,5.717054009437561035e-01,6.252928972244262695e-01,6.707466840744018555e-01,7.035914063453674316e-01,7.268052101135253906e-01,7.416800260543823242e-01,7.509792447090148926e-01,7.557038664817810059e-01,7.574955224990844727e-01,7.570176720619201660e-01,7.499780058860778809e-01,7.438275814056396484e-01,7.345107793807983398e-01,7.247052192687988281e-01,7.146036028861999512e-01,7.058892250061035156e-01,6.955679059028625488e-01,6.859266757965087891e-01,6.791499853134155273e-01,6.735266447067260742e-01,6.689966320991516113e-01,6.643174886703491211e-01,6.608747839927673340e-01,6.574726104736328125e-01,6.533465385437011719e-01,6.480413675308227539e-01,6.418486833572387695e-01,6.342654228210449219e-01,6.247926950454711914e-01,6.148900389671325684e-01,6.032318472862243652e-01,5.906868577003479004e-01,5.780771374702453613e-01,5.674380660057067871e-01,5.568209290504455566e-01,5.462242960929870605e-01,5.367799997329711914e-01,5.281666517257690430e-01,5.216400027275085449e-01,0.000000000000000000e+00,0.000000000000000000e+00,0.000000000000000000e+00
0.000000000000000000e+00,0.000000000000000000e+00,0.000000000000000000e+00,0.000000000000000000e+00,1.310462690889835358e-02,1.231075823307037354e-02,1.199184637516736984e-02,1.229230780154466629e-02,1.383142825216054916e-02,1.699396781623363495e-02,2.092354744672775269e-02,2.493786811828613281e-02,2.926049195230007172e-02,3.266499936580657959e-02,3.483796864748001099e-02,3.598069027066230774e-02,3.609465435147285461e-02,3.570071235299110413e-02,3.532578796148300171e-02,3.470218181610107422e-02,3.356545418500900269e-02,3.202943503856658936e-02,3.101735934615135193e-02,3.022264130413532257e-02,2.957557700574398041e-02,2.859882265329360962e-02,2.798411808907985687e-02,2.735999971628189087e-02,2.690571546554565430e-02,2.687489800155162811e-02,2.682000026106834412e-02,2.670291624963283539e-02,2.740340307354927063e-02,2.794170193374156952e-02,2.867489308118820190e-02,3.062244504690170288e-02,3.325000032782554626e-02,3.875999897718429565e-02,4.682863503694534302e-02,5.759363621473312378e-02,7.000324875116348267e-02,8.243441581726074219e-02,9.401285648345947266e-02,1.047785729169845581e-01,1.145731732249259949e-01,1.242263466119766235e-01,1.328838914632797241e-01,1.383524984121322632e-01,1.414517909288406372e-01,1.406784653663635254e-01,1.363830715417861938e-01,1.301736831665039062e-01,1.232155263423919678e-01,1.171927079558372498e-01,1.128013506531715393e-01,1.094862148165702820e-01,1.072308123111724854e-01,1.062325015664100647e-01,1.054385676980018616e-01,1.044591665267944336e-01,1.037200018763542175e-01,1.026414707303047180e-01,1.011482328176498413e-01,1.010744124650955200e-01,1.019385308027267456e-01,1.038278788328170776e-01,1.076493933796882629e-01,1.131659373641014099e-01,1.201266646385192871e-01,1.293075084686279297e-01,1.408870965242385864e-01,1.540350019931793213e-01,1.683061271905899048e-01,1.824364513158798218e-01,1.957340091466903687e-01,2.081269919872283936e-01,2.213599979877471924e-01,2.361380010843276978e-01,2.576651871204376221e-01,2.888144850730895996e-01,3.296165466308593750e-01,3.789748251438140869e-01,4.369214177131652832e-01,4.948818087577819824e-01,5.468418002128601074e-01,5.906555652618408203e-01,6.231499910354614258e-01,6.471055746078491211e-01,6.615300178527832031e-01,6.694844365119934082e-01,6.748292446136474609e-01,6.763889193534851074e-01,6.757323145866394043e-01,6.690528392791748047e-01,6.622539758682250977e-01,6.535404324531555176e-01,6.437824368476867676e-01,6.343071460723876953e-01,6.258472204208374023e-01,6.156650185585021973e-01,6.064200401306152344e-01,6.002575159072875977e-01,5.941683053970336914e-01,5.895349979400634766e-01,5.851962566375732422e-01,5.825008749961853027e-01,5.796291232109069824e-01,5.753891468048095703e-01,5.708113908767700195e-01,5.649965405464172363e-01,5.572181940078735352e-01,5.480145812034606934e-01,5.374954342842102051e-01,5.270827412605285645e-01,5.146995186805725098e-01,5.007556676864624023e-01,4.906333088874816895e-01,4.807856976985931396e-01,4.707947671413421631e-01,4.609914422035217285e-01,4.523666501045227051e-01,4.456500113010406494e-01,0.000000000000000000e+00,0.000000000000000000e+00,0.000000000000000000e+00
0.000000000000000000e+00,0.000000000000000000e+00,0.000000000000000000e+00,0.000000000000000000e+00,3.190432861447334290e-02,3.019878827035427094e-02,2.952138520777225494e-02,3.020307607948780060e-02,3.174857050180435181e-02,3.492015972733497620e-02,3.900000080466270447e-02,4.385770484805107117e-02,4.866294935345649719e-02,5.237166583538055420e-02,5.448321998119354248e-02,5.562499910593032837e-02,5.575586110353469849e-02,5.547660589218139648e-02,5.495579168200492859e-02,5.395563691854476929e-02,5.240763351321220398e-02,5.142452940344810486e-02,5.015886947512626648e-02,4.974905773997306824e-02,4.900076612830162048e-02,4.787117615342140198e-02,4.712490364909172058e-02,4.639500007033348083e-02,4.581714048981666565e-02,4.558346793055534363e-02,4.577999934554100037e-02,4.581375047564506531e-02,4.614042490720748901e-02,4.707829654216766357e-02,4.768851026892662048e-02,4.990600049495697021e-02,5.267933383584022522e-02,5.878318101167678833e-02,6.753863394260406494e-02,7.879181951284408569e-02,9.189767390489578247e-02,1.056534871459007263e-01,1.182328537106513977e-01,1.298042833805084229e-01,1.406509727239608765e-01,1.512565910816192627e-01,1.606634110212326050e-01,1.663929969072341919e-01,1.701715290546417236e-01,1.692782044410705566e-01,1.641674339771270752e-01,1.574247330427169800e-01,1.495042145252227783e-01,1.432754099369049072e-01,1.387786418199539185e-01,1.351089179515838623e-01,1.328818947076797485e-01,1.316899955272674561e-01,1.308785676956176758e-01,1.302116662263870239e-01,1.294499933719635010e-01,1.280479431152343750e-01,1.265694051980972290e-01,1.267529278993606567e-01,1.276167631149291992e-01,1.293936371803283691e-01,1.332660615444183350e-01,1.393821984529495239e-01,1.470433324575424194e-01,1.567775011062622070e-01,1.695148348808288574e-01,1.837056279182434082e-01,1.991048455238342285e-01,2.144622653722763062e-01,2.284960001707077026e-01,2.423059940338134766e-01,2.565639913082122803e-01,2.728199958801269531e-01,2.963620722293853760e-01,3.298096656799316406e-01,3.740192949771881104e-01,4.278082549571990967e-01,4.905314147472381592e-01,5.545718073844909668e-01,6.109707355499267578e-01,6.611711382865905762e-01,6.967599987983703613e-01,7.208970189094543457e-01,7.364199757575988770e-01,7.465707063674926758e-01,7.533730864524841309e-01,7.544455528259277344e-01,7.538053393363952637e-01,7.470380067825317383e-01,7.403308153152465820e-01,7.293564081192016602e-01,7.194387912750244141e-01,7.094272375106811523e-01,6.995424032211303711e-01,6.888466477394104004e-01,6.798533201217651367e-01,6.722949743270874023e-01,6.661633253097534180e-01,6.616975069046020508e-01,6.561695933341979980e-01,6.538765430450439453e-01,6.501612663269042969e-01,6.459082365036010742e-01,6.412477493286132812e-01,6.359817385673522949e-01,6.268209218978881836e-01,6.167154312133789062e-01,6.056481599807739258e-01,5.937772393226623535e-01,5.806681513786315918e-01,5.662742853164672852e-01,5.543214082717895508e-01,5.423862338066101074e-01,5.314295291900634766e-01,5.213842988014221191e-01,5.119733214378356934e-01,5.042325258255004883e-01,0.000000000000000000e+00,0.000000000000000000e+00,0.000000000000000000e+00
0.000000000000000000e+00,0.000000000000000000e+00,0.000000000000000000e+00,0.000000000000000000e+00,2.954418025910854340e-02,2.738439291715621948e-02,2.650815434753894806e-02,2.704307623207569122e-02,2.776857092976570129e-02,3.003396838903427124e-02,3.307097032666206360e-02,3.694934397935867310e-02,4.062147438526153564e-02,4.349416494369506836e-02,4.500525444746017456e-02,4.567879438400268555e-02,4.574689641594886780e-02,4.534232243895530701e-02,4.454526305198669434e-02,4.370836541056632996e-02,4.214272648096084595e-02,4.130207747220993042e-02,4.003924503922462463e-02,3.934565931558609009e-02,3.879941999912261963e-02,3.762058913707733154e-02,3.685274720191955566e-02,3.607000038027763367e-02,3.533714264631271362e-02,3.505510091781616211e-02,3.500285744667053223e-02,3.489208221435546875e-02,3.502170369029045105e-02,3.571787476539611816e-02,3.581915050745010376e-02,3.749333322048187256e-02,3.965933248400688171e-02,4.470295459032058716e-02,5.176886171102523804e-02,6.085727363824844360e-02,7.155977189540863037e-02,8.257837593555450439e-02,9.280142933130264282e-02,1.022042855620384216e-01,1.113204881548881531e-01,1.196509748697280884e-01,1.273553669452667236e-01,1.320199966430664062e-01,1.347184628248214722e-01,1.338235884904861450e-01,1.297107785940170288e-01,1.242368444800376892e-01,1.179305240511894226e-01,1.127021610736846924e-01,1.088100001215934753e-01,1.056424304842948914e-01,1.036086454987525940e-01,1.024200022220611572e-01,1.018228605389595032e-01,1.009533330798149109e-01,1.004400029778480530e-01,9.900029003620147705e-02,9.763529151678085327e-02,9.773971140384674072e-02,9.849235415458679199e-02,9.980817884206771851e-02,1.031681820750236511e-01,1.083431243896484375e-01,1.144433319568634033e-01,1.224424988031387329e-01,1.330316066741943359e-01,1.447062492370605469e-01,1.577006429433822632e-01,1.705238670110702515e-01,1.819920092821121216e-01,1.932030022144317627e-01,2.049980014562606812e-01,2.183726578950881958e-01,2.376375794410705566e-01,2.652948498725891113e-01,3.013741374015808105e-01,3.449389636516571045e-01,3.956806957721710205e-01,4.476296305656433105e-01,4.929671287536621094e-01,5.329877734184265137e-01,5.611528754234313965e-01,5.806266665458679199e-01,5.934150218963623047e-01,6.019655466079711914e-01,6.075507998466491699e-01,6.089166998863220215e-01,6.078246235847473145e-01,6.024647951126098633e-01,5.974051952362060547e-01,5.897508263587951660e-01,5.809588432312011719e-01,5.732080340385437012e-01,5.658264160156250000e-01,5.578091740608215332e-01,5.500733256340026855e-01,5.446274876594543457e-01,5.400316715240478516e-01,5.356466174125671387e-01,5.326862335205078125e-01,5.299243927001953125e-01,5.269265174865722656e-01,5.239021778106689453e-01,5.199454426765441895e-01,5.160021781921386719e-01,5.095736384391784668e-01,5.009118318557739258e-01,4.918709099292755127e-01,4.830254614353179932e-01,4.723740816116333008e-01,4.611528515815734863e-01,4.515923857688903809e-01,4.417866468429565430e-01,4.327371418476104736e-01,4.239285886287689209e-01,4.166499972343444824e-01,4.114100039005279541e-01,0.000000000000000000e+00,0.000000000000000000e+00,0.000000000000000000e+00
0.000000000000000000e+00,0.000000000000000000e+00,0.000000000000000000e+00,0.000000000000000000e+00,-2.751492708921432495e-02,-2.898908965289592743e-02,-2.965707704424858093e-02,-2.898461557924747467e-02,-2.736571431159973145e-02,-2.424491941928863525e-02,-2.022499963641166687e-02,-1.564262248575687408e-02,-1.112065557390451431e-02,-7.391666527837514877e-03,-4.960000049322843552e-03,-4.011896438896656036e-03,-3.848965512588620186e-03,-4.368749912828207016e-03,-4.890526179224252701e-03,-5.749454256147146225e-03,-7.324181962758302689e-03,-8.325282484292984009e-03,-9.367357939481735229e-03,-1.015528291463851929e-02,-1.096519175916910172e-02,-1.183823589235544205e-02,-1.256725564599037170e-02,-1.323499996215105057e-02,-1.394428499042987823e-02,-1.420999970287084579e-02,-1.415999978780746460e-02,-1.417083293199539185e-02,-1.384808495640754700e-02,-1.309468131512403488e-02,-1.238404214382171631e-02,-1.069777831435203552e-02,-7.829333655536174774e-03,-2.011591102927923203e-03,6.472727283835411072e-03,1.737272739410400391e-02,3.025534935295581818e-02,4.355302453041076660e-02,5.581714212894439697e-02,6.689357012510299683e-02,7.771316915750503540e-02,8.782511949539184570e-02,9.719000011682510376e-02,1.028095036745071411e-01,1.060982048511505127e-01,1.051064133644104004e-01,1.002325639128684998e-01,9.384368360042572021e-02,8.643447607755661011e-02,8.012594282627105713e-02,7.563216239213943481e-02,7.216621190309524536e-02,6.997837871313095093e-02,6.872750073671340942e-02,6.806142628192901611e-02,6.740333139896392822e-02,6.662999838590621948e-02,6.510588526725769043e-02,6.369529664516448975e-02,6.378911435604095459e-02,6.457059085369110107e-02,6.627969443798065186e-02,7.021939009428024292e-02,7.601469010114669800e-02,8.332999795675277710e-02,9.297749400138854980e-02,1.055554822087287903e-01,1.193037480115890503e-01,1.342554837465286255e-01,1.492806524038314819e-01,1.628520041704177856e-01,1.760530024766921997e-01,1.899340003728866577e-01,2.057493329048156738e-01,2.281875759363174438e-01,2.606413662433624268e-01,3.037723898887634277e-01,3.550058603286743164e-01,4.144656956195831299e-01,4.750464260578155518e-01,5.293121337890625000e-01,5.757899880409240723e-01,6.088771224021911621e-01,6.323199868202209473e-01,6.475099921226501465e-01,6.569444537162780762e-01,6.632331013679504395e-01,6.643122434616088867e-01,6.629831194877624512e-01,6.566159725189208984e-01,6.498752236366271973e-01,6.404383778572082520e-01,6.307728290557861328e-01,6.217368245124816895e-01,6.128231883049011230e-01,6.032620668411254883e-01,5.946566462516784668e-01,5.879424810409545898e-01,5.817250013351440430e-01,5.767475366592407227e-01,5.736824870109558105e-01,5.708539485931396484e-01,5.677104592323303223e-01,5.636708736419677734e-01,5.592113733291625977e-01,5.536678433418273926e-01,5.458518266677856445e-01,5.359827280044555664e-01,5.255454182624816895e-01,5.141927599906921387e-01,5.014600157737731934e-01,4.880614280700683594e-01,4.757085740566253662e-01,4.642800092697143555e-01,4.538199901580810547e-01,4.437257051467895508e-01,4.349066615104675293e-01,4.278475046157836914e-01,0.000000000000000000e+00,0.000000000000000000e+00,0.000000000000000000e+00
