1100;1105;1110;1115;1120;1125;1130;1135;1140;1145;1150;1155;1160;1165;1170;1175;1180;1185;1190;1195;1200;1205;1210;1215;1220;1225;1230;1235;1240;1245;1250;1255;1260;1265;1270;1275;1280;1285;1290;1295;1301;1306;1311;1316;1321;1326;1331;1336;1341;1346;1351;1356;1361;1366;1371;1376;1381;1386;1391;1396;1401;1406;1411;1416;1421;1426;1431;1436;1441;1446;1451;1456;1461;1466;1471;1476;1481;1486;1491;1496;1502;1507;1512;1517;1522;1527;1532;1537;1542;1547;1552;1557;1562;1567;1572;1577;1582;1587;1592;1597;1602;1607;1612;1617;1622;1627;1632;1637;1642;1647;1652;1657;1662;1667;1672;1677;1682;1687;1692;1697;1703;1708;1713;1718;1723;1728;1733;1738;1743;1748;1753;1758;1763;1768;1773;1778;1783;1788;1793;1798;1803;1808;1813;1818;1823;1828;1833;1838;1843;1848;1853;1858;1863;1868;1873;1878;1883;1888;1893;1898;1904;1909;1914;1919;1924;1929;1934;1939;1944;1949;1954;1959;1964;1969;1974;1979;1984;1989;1994;1999;2004;2009;2014;2019;2024;2029;2034;2039;2044;2049;2054;2059;2064;2069;2074;2079;2084;2089;2094;2100
0.504698;0.507127;0.505485;0.509756;0.509236;0.509689;0.515829;0.512702;0.516217;0.514584;0.516923;0.515070;0.510002;0.515526;0.517825;0.513635;0.516793;0.522445;0.516803;0.518841;0.521507;0.522140;0.527069;0.526852;0.530429;0.531696;0.529609;0.530161;0.533566;0.536604;0.531181;0.538215;0.543183;0.541703;0.542436;0.543350;0.545436;0.545756;0.545088;0.552150;0.549289;0.550027;0.555989;0.560325;0.558011;0.559665;0.563552;0.563408;0.564807;0.561830;0.569010;0.568836;0.573611;0.578710;0.576183;0.577593;0.578903;0.578632;0.581383;0.584031;0.582433;0.586060;0.593031;0.593293;0.598640;0.597437;0.597563;0.602313;0.605004;0.601451;0.610271;0.607655;0.607474;0.607871;0.609864;0.611440;0.609516;0.614561;0.611810;0.615789;0.615501;0.613440;0.617806;0.613847;0.617855;0.620772;0.617016;0.619197;0.618919;0.621602;0.622537;0.621322;0.625115;0.621233;0.619586;0.620171;0.622785;0.621637;0.625259;0.627435;0.626664;0.629717;0.629683;0.632365;0.629729;0.634420;0.630786;0.637870;0.638381;0.636765;0.640098;0.641504;0.645220;0.652794;0.651001;0.648347;0.661594;0.661684;0.660812;0.667876;0.675267;0.675684;0.682356;0.687997;0.694195;0.698800;0.699904;0.710352;0.719196;0.724449;0.726383;0.731714;0.740804;0.746658;0.745220;0.756638;0.760302;0.769702;0.776970;0.779696;0.791741;0.797137;0.797174;0.804983;0.810651;0.812784;0.822409;0.826593;0.832896;0.838661;0.838488;0.843473;0.841724;0.849194;0.844357;0.848813;0.850637;0.850450;0.848602;0.850639;0.843381;0.844925;0.843046;0.840582;0.838694;0.830845;0.823902;0.826615;0.820637;0.816102;0.811738;0.806855;0.795052;0.787579;0.788617;0.779599;0.767927;0.763995;0.756326;0.746695;0.737966;0.731484;0.722417;0.713963;0.704052;0.696843;0.687956;0.683930;0.677366;0.659948;0.652950;0.647488;0.640316;0.634133;0.627373;0.619806;0.613974;0.605374;0.597061;0.593814
0.584008;0.591607;0.595362;0.596658;0.610342;0.611406;0.625548;0.625607;0.632439;0.634953;0.643807;0.652804;0.662655;0.670205;0.674295;0.684652;0.693654;0.695830;0.707252;0.710747;0.720375;0.724458;0.735070;0.746695;0.749297;0.761318;0.763597;0.768294;0.776661;0.782589;0.787922;0.792173;0.801910;0.804463;0.807143;0.814262;0.816129;0.819445;0.818618;0.824172;0.827185;0.829532;0.836287;0.833984;0.833166;0.834766;0.832382;0.833292;0.833608;0.826381;0.826003;0.825951;0.821454;0.817796;0.822145;0.815576;0.814405;0.806929;0.801602;0.804342;0.799649;0.796189;0.792323;0.782235;0.783752;0.770864;0.773147;0.768743;0.764887;0.759310;0.757073;0.748636;0.746485;0.741595;0.734943;0.735170;0.725894;0.721019;0.718533;0.714273;0.713896;0.699495;0.701801;0.693582;0.692611;0.687054;0.687042;0.684238;0.683452;0.674107;0.669696;0.669085;0.666626;0.662722;0.661017;0.663725;0.658013;0.654467;0.646020;0.649960;0.643471;0.641305;0.644259;0.642767;0.635537;0.635811;0.630133;0.630027;0.628085;0.625284;0.623901;0.627017;0.624232;0.620133;0.620205;0.611373;0.616247;0.612801;0.608488;0.608573;0.605441;0.601385;0.602500;0.603925;0.601210;0.600190;0.598093;0.594745;0.593126;0.598579;0.594021;0.589162;0.588961;0.583384;0.586169;0.583879;0.578382;0.582964;0.579139;0.577139;0.581227;0.576878;0.576372;0.577032;0.575028;0.575585;0.571730;0.570019;0.565952;0.564313;0.562966;0.565055;0.564767;0.565179;0.559389;0.558770;0.556872;0.555836;0.555406;0.554068;0.553867;0.549812;0.553631;0.546764;0.550674;0.545032;0.545748;0.544408;0.539468;0.547197;0.539269;0.536613;0.536732;0.532349;0.534787;0.531944;0.536264;0.530835;0.531713;0.531452;0.531402;0.527886;0.526904;0.528144;0.524930;0.524934;0.525054;0.522658;0.519505;0.523061;0.518101;0.519647;0.515723;0.516105;0.520924;0.513988;0.514553;0.516332;0.511405;0.513747
0.518125;0.520465;0.517851;0.522291;0.521911;0.522732;0.520700;0.525797;0.524259;0.527878;0.530489;0.535882;0.532498;0.536730;0.541103;0.540886;0.540271;0.543846;0.547205;0.551221;0.550123;0.549450;0.558150;0.563029;0.561749;0.568822;0.570656;0.573862;0.573601;0.582972;0.581194;0.585950;0.589918;0.595019;0.594655;0.604591;0.607856;0.608827;0.617543;0.623024;0.626398;0.635074;0.638684;0.644912;0.649464;0.648594;0.656019;0.662244;0.672276;0.676524;0.683098;0.689211;0.694624;0.701417;0.704180;0.712194;0.712723;0.726595;0.729048;0.740096;0.738339;0.745484;0.756060;0.757417;0.755804;0.764265;0.768269;0.770967;0.774784;0.777365;0.785629;0.787738;0.788628;0.789805;0.792739;0.791052;0.792636;0.793288;0.796281;0.796301;0.794292;0.799373;0.793120;0.792515;0.790632;0.788243;0.785766;0.779216;0.784397;0.772534;0.772751;0.766510;0.758415;0.758520;0.752571;0.748299;0.744004;0.737514;0.733792;0.725944;0.720547;0.717944;0.709622;0.701826;0.691204;0.692550;0.687835;0.682908;0.680340;0.673802;0.667619;0.662235;0.657954;0.651820;0.652036;0.646761;0.643403;0.642022;0.639605;0.641384;0.637849;0.630377;0.629980;0.633149;0.626016;0.628381;0.628646;0.625727;0.625684;0.627329;0.631270;0.631105;0.629218;0.637269;0.634473;0.636230;0.636248;0.637130;0.644689;0.640432;0.638903;0.648903;0.644465;0.648002;0.650732;0.648275;0.647659;0.657064;0.664819;0.657889;0.664583;0.658690;0.660722;0.666272;0.662701;0.665074;0.665219;0.663001;0.662159;0.659739;0.669789;0.664577;0.663858;0.665055;0.656666;0.662178;0.654013;0.654254;0.652848;0.644554;0.644929;0.643170;0.638126;0.635494;0.632767;0.633472;0.634156;0.619374;0.622513;0.614722;0.611934;0.604259;0.606248;0.603691;0.597755;0.591909;0.593427;0.586289;0.579086;0.576716;0.571812;0.566688;0.569075;0.563210;0.559607;0.556540;0.550574;0.551430;0.543251;0.546295
0.506749;0.508946;0.505981;0.506298;0.507813;0.508457;0.511198;0.512054;0.507783;0.507339;0.508826;0.507338;0.506855;0.511695;0.509566;0.516033;0.512187;0.513011;0.512327;0.513558;0.510718;0.510817;0.516283;0.513270;0.519597;0.520975;0.516997;0.521573;0.518342;0.522208;0.519014;0.524832;0.525302;0.524222;0.523538;0.524031;0.526287;0.527370;0.528291;0.526384;0.529748;0.525541;0.530495;0.530765;0.525063;0.527668;0.531980;0.530194;0.529152;0.531655;0.532226;0.535878;0.536101;0.542177;0.537653;0.533748;0.540529;0.542349;0.539644;0.542661;0.543742;0.547665;0.549246;0.550891;0.548411;0.553682;0.555812;0.557458;0.559054;0.563643;0.564046;0.565716;0.570502;0.570308;0.574345;0.575867;0.583604;0.584683;0.594445;0.594950;0.604607;0.601866;0.607496;0.612159;0.617877;0.619776;0.626234;0.632287;0.643453;0.643132;0.656354;0.659075;0.662589;0.669711;0.676075;0.681208;0.688078;0.691246;0.701914;0.705933;0.713548;0.718932;0.720772;0.732702;0.731814;0.742780;0.747092;0.752157;0.759539;0.763308;0.770826;0.776581;0.782973;0.788805;0.789313;0.790683;0.799009;0.806055;0.808305;0.810934;0.814157;0.813714;0.821410;0.823059;0.825051;0.829025;0.828401;0.835229;0.832450;0.835037;0.830283;0.835985;0.838145;0.838874;0.845268;0.839782;0.842108;0.837505;0.839393;0.830984;0.836606;0.833962;0.832855;0.830328;0.828138;0.822344;0.826755;0.821596;0.822068;0.823323;0.820636;0.814437;0.806065;0.807045;0.803813;0.799267;0.790452;0.795161;0.786305;0.785604;0.778307;0.772632;0.771724;0.765726;0.760899;0.756320;0.746515;0.744177;0.737494;0.732333;0.728677;0.721765;0.713993;0.708609;0.707884;0.697428;0.688778;0.688129;0.683071;0.672169;0.667452;0.656707;0.649171;0.648412;0.638626;0.634646;0.628309;0.620059;0.617066;0.608440;0.605442;0.601550;0.594128;0.596843;0.590526;0.584116;0.574861;0.571258;0.567020;0.562014
0.507943;0.509186;0.510248;0.510765;0.513116;0.510224;0.508611;0.511554;0.510263;0.510382;0.511743;0.516796;0.517044;0.518364;0.517542;0.521069;0.525795;0.523033;0.528452;0.533092;0.531037;0.530465;0.534517;0.538205;0.544892;0.542412;0.544065;0.549565;0.555999;0.557785;0.560620;0.562843;0.570435;0.573237;0.578377;0.583343;0.586483;0.590626;0.598228;0.607320;0.612838;0.617808;0.626527;0.630532;0.637904;0.642248;0.651947;0.659244;0.666396;0.675256;0.683508;0.690220;0.698546;0.708178;0.717193;0.725258;0.731022;0.742186;0.741999;0.755811;0.763416;0.769161;0.774854;0.786235;0.793035;0.805505;0.808298;0.815530;0.821476;0.823556;0.834698;0.838428;0.845933;0.844493;0.852142;0.853047;0.858680;0.864136;0.862529;0.867612;0.870336;0.867386;0.865456;0.872957;0.871230;0.871315;0.865776;0.867219;0.861895;0.862005;0.858046;0.854799;0.852260;0.847413;0.841975;0.839532;0.837330;0.838532;0.825080;0.824679;0.814014;0.806919;0.806409;0.802308;0.797501;0.789266;0.783057;0.773705;0.771823;0.758966;0.756636;0.752559;0.742488;0.737884;0.736102;0.728128;0.725986;0.716018;0.715282;0.703415;0.700951;0.695985;0.695841;0.691425;0.681118;0.680705;0.669816;0.670944;0.665451;0.662376;0.659397;0.655952;0.650833;0.645899;0.641699;0.640792;0.640381;0.632477;0.631325;0.629163;0.626712;0.627122;0.621423;0.620213;0.611374;0.612506;0.607391;0.608790;0.605729;0.606667;0.600775;0.595624;0.597399;0.594070;0.593779;0.590269;0.592362;0.581298;0.583604;0.581414;0.582907;0.578275;0.574471;0.573128;0.570205;0.572375;0.566617;0.566529;0.562249;0.558762;0.560826;0.558237;0.552682;0.555376;0.555609;0.551333;0.546852;0.551674;0.547100;0.544548;0.545853;0.537176;0.541066;0.537589;0.533506;0.533169;0.530796;0.531285;0.532316;0.529450;0.524872;0.525596;0.525775;0.524561;0.518328;0.520680;0.519733;0.520164;0.511825;0.516444
0.594472;0.605288;0.608150;0.620778;0.625679;0.624184;0.634767;0.652350;0.654647;0.662592;0.668446;0.677810;0.687452;0.697257;0.706434;0.711908;0.716261;0.724558;0.735834;0.746350;0.755724;0.764559;0.771063;0.780897;0.787124;0.797642;0.801357;0.805240;0.818780;0.816295;0.825735;0.833200;0.839996;0.844592;0.849341;0.854931;0.859289;0.859419;0.860574;0.864208;0.866048;0.860806;0.866180;0.864883;0.863319;0.863882;0.861134;0.860135;0.860226;0.855519;0.853662;0.849091;0.843368;0.840675;0.838651;0.833798;0.826724;0.824371;0.813108;0.810346;0.803911;0.799239;0.796468;0.787634;0.779348;0.773785;0.765804;0.762762;0.755327;0.751229;0.738199;0.734520;0.726458;0.725255;0.712142;0.706418;0.706380;0.699535;0.693454;0.693205;0.685665;0.679735;0.681175;0.669292;0.671536;0.663849;0.658954;0.653230;0.654009;0.650165;0.646724;0.645670;0.637796;0.642861;0.641257;0.635515;0.631535;0.627489;0.626390;0.621355;0.625269;0.620305;0.618579;0.617804;0.617628;0.616528;0.616595;0.614511;0.611840;0.615724;0.611154;0.607179;0.611324;0.606214;0.605825;0.605327;0.606223;0.602233;0.596014;0.599450;0.600124;0.600831;0.597185;0.597102;0.596594;0.589498;0.588931;0.592373;0.587708;0.582845;0.581678;0.577697;0.582430;0.574952;0.580463;0.569680;0.573618;0.569654;0.565650;0.568010;0.568052;0.562524;0.562341;0.560212;0.559049;0.560086;0.559044;0.554439;0.546012;0.546643;0.551207;0.546692;0.545002;0.544438;0.540012;0.537692;0.537957;0.534792;0.539080;0.539045;0.530776;0.532810;0.528708;0.529930;0.527919;0.527526;0.525676;0.525760;0.527763;0.519940;0.517228;0.517861;0.522711;0.516153;0.515297;0.515749;0.514296;0.512101;0.515908;0.517345;0.513279;0.512606;0.510782;0.516299;0.512286;0.506383;0.510807;0.513513;0.505353;0.507488;0.505375;0.508388;0.507980;0.510169;0.508450;0.504291;0.504242;0.509916;0.505552;0.500873
0.507467;0.512382;0.515745;0.514021;0.514350;0.518306;0.514692;0.516408;0.516923;0.521788;0.521261;0.520472;0.521907;0.520032;0.522365;0.528093;0.528043;0.531297;0.532637;0.534108;0.536954;0.531518;0.535914;0.531113;0.532608;0.542935;0.537883;0.542464;0.541443;0.540440;0.543192;0.539386;0.546312;0.544579;0.545866;0.541390;0.544791;0.548755;0.547862;0.545488;0.547043;0.550578;0.551042;0.554770;0.549057;0.551356;0.553582;0.548981;0.551490;0.549024;0.558570;0.550201;0.551582;0.553454;0.552570;0.552810;0.556498;0.555712;0.559863;0.555756;0.560220;0.561840;0.566376;0.558982;0.569028;0.569775;0.572934;0.575758;0.580912;0.581065;0.581840;0.589208;0.589573;0.598346;0.599870;0.604119;0.607693;0.613524;0.620364;0.628560;0.628673;0.635549;0.645362;0.651813;0.655419;0.664549;0.671712;0.680135;0.692535;0.699805;0.710994;0.709661;0.727660;0.729597;0.740540;0.753689;0.757362;0.768042;0.777685;0.791762;0.794783;0.807213;0.815114;0.821174;0.827580;0.841316;0.841276;0.853382;0.859600;0.867860;0.871446;0.875296;0.882329;0.889052;0.892625;0.895278;0.897434;0.901633;0.898941;0.901353;0.902757;0.901636;0.899808;0.904736;0.901444;0.899157;0.897650;0.896060;0.892953;0.883199;0.883320;0.879119;0.871739;0.868491;0.859337;0.860120;0.843949;0.841022;0.831506;0.826004;0.817875;0.811575;0.807958;0.794072;0.787779;0.777472;0.776408;0.764435;0.754240;0.745308;0.736832;0.732286;0.724283;0.714036;0.708532;0.702983;0.690420;0.690804;0.677911;0.671443;0.667729;0.657464;0.648750;0.645610;0.642389;0.630024;0.626675;0.621576;0.621983;0.609896;0.605917;0.600392;0.594354;0.587943;0.583260;0.581795;0.575525;0.574369;0.569079;0.567272;0.569475;0.563864;0.561714;0.553412;0.549816;0.551313;0.549781;0.544088;0.540078;0.537851;0.537562;0.535841;0.536071;0.531148;0.523672;0.524302;0.528977;0.526623;0.521538;0.514755
0.554584;0.555433;0.560980;0.557620;0.569969;0.571449;0.574990;0.578928;0.584614;0.586424;0.591570;0.600352;0.604143;0.604479;0.615198;0.616276;0.624274;0.627440;0.631339;0.636871;0.642140;0.648029;0.650622;0.660420;0.660637;0.671619;0.673993;0.675662;0.681505;0.682212;0.689620;0.692199;0.696471;0.698255;0.707667;0.707113;0.707898;0.713253;0.714953;0.721844;0.717891;0.719297;0.720993;0.721420;0.724830;0.727500;0.732781;0.730172;0.729943;0.732274;0.728923;0.733266;0.731194;0.732107;0.725849;0.730498;0.724073;0.728677;0.721193;0.724881;0.726822;0.719748;0.721075;0.724560;0.716823;0.716820;0.718761;0.717459;0.716656;0.710620;0.712041;0.716101;0.719351;0.709420;0.707894;0.714583;0.711348;0.714496;0.709089;0.710656;0.710753;0.708174;0.707041;0.708420;0.711962;0.719615;0.712115;0.708528;0.705325;0.711136;0.710682;0.710720;0.709436;0.710175;0.710485;0.713078;0.712716;0.715516;0.717887;0.717645;0.718235;0.715852;0.720999;0.722521;0.716996;0.722957;0.715160;0.722846;0.720454;0.720586;0.718143;0.722494;0.718209;0.724547;0.719745;0.717537;0.720745;0.719659;0.714249;0.718087;0.712937;0.713362;0.713519;0.708136;0.709864;0.703488;0.708316;0.705113;0.701729;0.696839;0.692453;0.687140;0.685084;0.687574;0.681902;0.673393;0.672741;0.672197;0.670941;0.666965;0.660900;0.656306;0.649941;0.646352;0.645949;0.641908;0.637604;0.636949;0.626912;0.626301;0.621033;0.619726;0.614430;0.611985;0.610141;0.609458;0.604372;0.599518;0.593295;0.590553;0.590797;0.585523;0.586485;0.584962;0.578721;0.573895;0.578967;0.573574;0.570471;0.565544;0.565215;0.565650;0.558901;0.557793;0.557088;0.553731;0.549827;0.554211;0.544666;0.546912;0.545712;0.544752;0.537388;0.540114;0.537090;0.538127;0.538337;0.531769;0.533548;0.531697;0.527708;0.527845;0.524815;0.522586;0.519891;0.521688;0.523889;0.526497;0.522368;0.520095
0.519064;0.518915;0.523601;0.527714;0.527123;0.528251;0.530906;0.532158;0.539302;0.537260;0.541530;0.537584;0.541774;0.545080;0.545400;0.549395;0.551052;0.555127;0.554010;0.551782;0.558483;0.565863;0.562580;0.562715;0.568501;0.573792;0.566702;0.570439;0.576149;0.581654;0.579411;0.585059;0.583892;0.581866;0.589354;0.587605;0.596018;0.593371;0.592943;0.591914;0.594902;0.601960;0.605042;0.604093;0.604807;0.607192;0.609135;0.611777;0.607461;0.611088;0.611989;0.618544;0.614942;0.626077;0.618000;0.619860;0.625773;0.627195;0.632719;0.628549;0.625360;0.628938;0.638511;0.639301;0.638848;0.640304;0.642888;0.645380;0.650531;0.649184;0.662082;0.660201;0.658866;0.666036;0.672538;0.670441;0.673628;0.681438;0.684431;0.687988;0.690655;0.696712;0.695224;0.706082;0.712740;0.715716;0.723117;0.729073;0.728278;0.738170;0.743414;0.747079;0.755935;0.762678;0.771601;0.775134;0.775398;0.782350;0.792338;0.798183;0.795003;0.804425;0.808739;0.814954;0.822893;0.816465;0.832036;0.835819;0.838365;0.836817;0.846157;0.847221;0.846880;0.847873;0.851510;0.851023;0.854423;0.849416;0.842986;0.851213;0.848308;0.846962;0.845632;0.838769;0.835642;0.837645;0.828120;0.824281;0.819623;0.815022;0.808077;0.804887;0.801271;0.787572;0.786540;0.774286;0.774532;0.763527;0.757368;0.749891;0.742821;0.735613;0.728390;0.720910;0.709985;0.700864;0.696591;0.684132;0.677176;0.669839;0.665380;0.653104;0.645363;0.639980;0.634718;0.624835;0.619223;0.609260;0.607969;0.605448;0.596093;0.585919;0.584825;0.572416;0.574382;0.569853;0.562989;0.566081;0.553962;0.553603;0.549168;0.545226;0.542121;0.537031;0.531231;0.526730;0.531924;0.527301;0.523712;0.518690;0.522941;0.518336;0.515896;0.515725;0.518702;0.509411;0.513016;0.505447;0.504987;0.511752;0.505256;0.501006;0.499393;0.502687;0.497578;0.498717;0.496038;0.495025;0.497823;0.499247
0.505855;0.504231;0.501917;0.512351;0.505382;0.513688;0.508346;0.509893;0.510740;0.510547;0.514869;0.515955;0.521686;0.518699;0.514605;0.513713;0.520216;0.514573;0.517866;0.520821;0.521919;0.521786;0.521145;0.519864;0.518708;0.518164;0.526854;0.523616;0.521945;0.524775;0.519265;0.527453;0.531032;0.531334;0.529460;0.530068;0.529446;0.530481;0.527038;0.531058;0.530799;0.532581;0.526537;0.532783;0.535325;0.530357;0.533852;0.534193;0.531807;0.533969;0.538000;0.534146;0.538723;0.535511;0.533826;0.540626;0.536458;0.535773;0.539435;0.546166;0.542695;0.539606;0.539518;0.546302;0.545686;0.547688;0.549240;0.553399;0.553634;0.558463;0.561492;0.559496;0.562275;0.567797;0.571840;0.572873;0.574550;0.576715;0.583697;0.583185;0.593103;0.594422;0.595197;0.599583;0.604787;0.614164;0.613636;0.618777;0.628867;0.627440;0.636839;0.644590;0.651741;0.656659;0.662406;0.666584;0.672695;0.682204;0.691320;0.694429;0.698747;0.701447;0.711760;0.718394;0.724859;0.728028;0.738680;0.746223;0.751179;0.754393;0.759413;0.761650;0.772371;0.770282;0.778578;0.785987;0.792453;0.795821;0.795910;0.802569;0.804611;0.811125;0.811809;0.814644;0.819618;0.819590;0.824705;0.830892;0.828165;0.828835;0.831990;0.834488;0.837673;0.835021;0.834948;0.837723;0.833875;0.834583;0.835140;0.835658;0.834536;0.840302;0.835267;0.829608;0.831339;0.829690;0.831585;0.825978;0.829435;0.825269;0.823509;0.815575;0.814085;0.814820;0.809224;0.804774;0.800954;0.804237;0.795753;0.793710;0.787629;0.784243;0.778190;0.774816;0.768775;0.766410;0.756284;0.750969;0.743689;0.741222;0.734471;0.722540;0.725362;0.714053;0.712181;0.705049;0.700916;0.684672;0.684776;0.674623;0.667789;0.665210;0.661623;0.650373;0.643184;0.641099;0.632704;0.629074;0.619605;0.614333;0.612859;0.602526;0.597454;0.594316;0.591231;0.583680;0.576478;0.571215;0.565099;0.562774
0.506427;0.510609;0.509986;0.510322;0.510175;0.506859;0.507480;0.513433;0.515327;0.513262;0.515396;0.516734;0.518379;0.518220;0.521822;0.524930;0.522711;0.522386;0.523174;0.524871;0.526824;0.528547;0.534896;0.533909;0.540334;0.536081;0.537494;0.538296;0.537773;0.542449;0.543066;0.552254;0.548179;0.555482;0.556912;0.555574;0.563810;0.563621;0.566620;0.570396;0.572020;0.578343;0.580310;0.586196;0.582709;0.589847;0.594418;0.596150;0.594321;0.604241;0.603797;0.608217;0.610095;0.618024;0.623952;0.626285;0.629458;0.639659;0.639364;0.645671;0.646737;0.650671;0.655502;0.659146;0.668273;0.670490;0.673642;0.678039;0.682895;0.690892;0.696016;0.698405;0.705923;0.710218;0.709839;0.713740;0.721246;0.730579;0.731162;0.734890;0.742305;0.743855;0.750348;0.758300;0.757043;0.764504;0.768926;0.772689;0.777429;0.778081;0.785541;0.791215;0.793781;0.795405;0.803661;0.806905;0.807453;0.814864;0.812361;0.815611;0.822115;0.827125;0.830231;0.827681;0.837269;0.836274;0.835708;0.839371;0.840272;0.839966;0.843722;0.843732;0.842773;0.851476;0.844981;0.844706;0.842311;0.841694;0.838902;0.836647;0.837525;0.838800;0.830604;0.828002;0.824387;0.825362;0.822193;0.816771;0.803820;0.805382;0.806227;0.797590;0.793994;0.783945;0.785385;0.771022;0.771218;0.761950;0.758289;0.752758;0.750100;0.734367;0.730078;0.722409;0.713735;0.708401;0.704778;0.698894;0.687764;0.684916;0.681838;0.673972;0.665415;0.666287;0.655521;0.647172;0.644652;0.634938;0.634243;0.626251;0.620807;0.619928;0.611574;0.610527;0.601869;0.598314;0.593972;0.594528;0.588242;0.578986;0.578757;0.573913;0.578494;0.570973;0.566912;0.563739;0.553489;0.559697;0.552300;0.552075;0.550591;0.547224;0.546350;0.546254;0.535388;0.545447;0.540097;0.537285;0.537788;0.528992;0.530223;0.525952;0.524478;0.524479;0.522810;0.527198;0.522575;0.518582;0.519139;0.515454
0.554617;0.560951;0.562711;0.567769;0.571576;0.575091;0.572408;0.582720;0.584361;0.593563;0.599242;0.601477;0.609431;0.608589;0.614182;0.623425;0.631681;0.629218;0.633519;0.636149;0.643374;0.652999;0.655541;0.659319;0.660234;0.669626;0.670331;0.673143;0.681899;0.685193;0.690152;0.695718;0.694229;0.694821;0.697544;0.697744;0.699005;0.700574;0.703577;0.706412;0.712828;0.710520;0.706091;0.707905;0.707811;0.706392;0.709026;0.702189;0.703045;0.701393;0.696666;0.693974;0.685706;0.689789;0.684249;0.679826;0.676574;0.671677;0.670833;0.664953;0.662369;0.660864;0.656954;0.648557;0.648665;0.644305;0.638616;0.638417;0.629762;0.628877;0.623456;0.616689;0.613844;0.610836;0.605100;0.604146;0.601675;0.593622;0.590328;0.590373;0.584115;0.582407;0.577666;0.575951;0.574834;0.569214;0.566518;0.566644;0.565286;0.564088;0.557015;0.556521;0.552818;0.558444;0.554377;0.552615;0.549350;0.552675;0.553352;0.554961;0.551978;0.551369;0.552774;0.553709;0.551863;0.553388;0.555090;0.554675;0.557878;0.563479;0.559779;0.561653;0.566300;0.567816;0.570316;0.576719;0.576627;0.578492;0.588572;0.587871;0.585902;0.595936;0.605186;0.605062;0.613164;0.621483;0.621889;0.633899;0.632607;0.633849;0.637910;0.649210;0.655561;0.667860;0.670572;0.674662;0.676947;0.690008;0.693069;0.697038;0.702673;0.708952;0.715074;0.717678;0.720946;0.733325;0.738076;0.738456;0.742498;0.748568;0.753860;0.758096;0.760603;0.760485;0.763617;0.770061;0.763882;0.768759;0.769435;0.772892;0.766742;0.766909;0.764519;0.762402;0.763151;0.761422;0.755826;0.757174;0.752187;0.750183;0.743695;0.741099;0.735539;0.725529;0.728124;0.717939;0.712241;0.706603;0.701971;0.692650;0.684199;0.675229;0.676466;0.662166;0.661010;0.652555;0.646918;0.638881;0.634011;0.630712;0.624377;0.617180;0.612199;0.604136;0.600275;0.592116;0.592421;0.580409;0.575823;0.575317
0.519448;0.522513;0.525811;0.523279;0.528383;0.526746;0.531641;0.528047;0.533393;0.534342;0.537919;0.540523;0.539314;0.546536;0.545634;0.549415;0.548791;0.553767;0.554802;0.559631;0.560954;0.566334;0.569837;0.571921;0.581649;0.583401;0.580226;0.588291;0.594272;0.589246;0.602218;0.603156;0.605507;0.610245;0.614342;0.619031;0.621964;0.627971;0.630480;0.636804;0.639787;0.646170;0.651822;0.654618;0.662315;0.666293;0.668118;0.677111;0.680603;0.687673;0.690376;0.700045;0.702671;0.711886;0.714684;0.720496;0.721447;0.734937;0.739067;0.741018;0.749352;0.750063;0.757483;0.765466;0.765489;0.769624;0.775251;0.778745;0.784032;0.784163;0.786268;0.788889;0.794659;0.795240;0.797845;0.794713;0.801717;0.801919;0.799870;0.796569;0.799509;0.799602;0.799697;0.803763;0.796551;0.791033;0.789937;0.787768;0.783806;0.784419;0.775885;0.774237;0.767554;0.767017;0.761159;0.759470;0.754437;0.747874;0.746254;0.738469;0.732415;0.726519;0.723223;0.714467;0.713739;0.707589;0.703007;0.701329;0.695069;0.690926;0.682821;0.682861;0.677489;0.673912;0.671052;0.668977;0.662971;0.657143;0.655782;0.653793;0.650198;0.648112;0.650968;0.650547;0.641845;0.639339;0.643203;0.638163;0.635862;0.637538;0.636139;0.638882;0.640825;0.634720;0.638004;0.638830;0.638426;0.639669;0.639061;0.640301;0.640941;0.644283;0.643284;0.643807;0.642702;0.644482;0.646805;0.648650;0.644925;0.649046;0.648335;0.644602;0.647796;0.644607;0.650401;0.647282;0.646516;0.645529;0.642656;0.644172;0.644305;0.645616;0.641020;0.641372;0.640231;0.641019;0.636589;0.630237;0.632456;0.629027;0.627772;0.625584;0.622397;0.622506;0.615354;0.611222;0.610974;0.614995;0.605861;0.603558;0.601781;0.596206;0.593488;0.589726;0.587276;0.579068;0.578649;0.576198;0.569241;0.567268;0.565084;0.565776;0.553738;0.556416;0.552870;0.558197;0.546517;0.545186;0.546672;0.541992
0.601896;0.597366;0.608087;0.610128;0.622591;0.631683;0.632668;0.643227;0.650449;0.662734;0.669347;0.676197;0.683127;0.690033;0.700256;0.707626;0.717985;0.726258;0.734092;0.743313;0.747799;0.766870;0.767162;0.780775;0.786288;0.793413;0.797543;0.806181;0.811750;0.816754;0.822731;0.835971;0.837210;0.840901;0.845677;0.855668;0.852512;0.858899;0.856705;0.855992;0.861609;0.866035;0.866742;0.870573;0.866513;0.871072;0.860982;0.866542;0.868253;0.859716;0.861218;0.857622;0.853196;0.852075;0.842089;0.843104;0.833347;0.829993;0.822673;0.817188;0.808284;0.815778;0.800596;0.793971;0.794852;0.781081;0.780525;0.775239;0.767047;0.758470;0.750370;0.748758;0.739712;0.739325;0.728898;0.727299;0.717227;0.712061;0.707229;0.700997;0.697735;0.688596;0.685592;0.676279;0.672890;0.664024;0.667651;0.660233;0.657349;0.654023;0.645986;0.641164;0.638577;0.635931;0.634200;0.629289;0.627246;0.621385;0.615626;0.612810;0.611158;0.608301;0.607812;0.604154;0.603841;0.599169;0.597963;0.593162;0.589456;0.589060;0.587403;0.585325;0.582848;0.583292;0.579389;0.579393;0.573706;0.572601;0.568196;0.573566;0.570187;0.566829;0.568286;0.562730;0.562180;0.565730;0.561412;0.558376;0.557213;0.558166;0.552315;0.560147;0.555800;0.556800;0.553142;0.553963;0.552080;0.552311;0.553114;0.550447;0.550304;0.547344;0.546079;0.545556;0.542725;0.545611;0.548394;0.539432;0.543626;0.542434;0.541768;0.547298;0.539856;0.544320;0.538743;0.539494;0.543034;0.538181;0.538651;0.536260;0.533083;0.531087;0.537008;0.530742;0.535233;0.529940;0.533324;0.526371;0.526689;0.528785;0.528213;0.523632;0.526822;0.525877;0.524781;0.522070;0.519392;0.521391;0.517807;0.516786;0.522893;0.518751;0.519380;0.513420;0.516180;0.518871;0.508946;0.513019;0.514315;0.507802;0.508535;0.513740;0.510824;0.509000;0.508591;0.505536;0.507958;0.504193;0.502928;0.502177
0.523002;0.524284;0.524158;0.527356;0.525798;0.527427;0.527991;0.531625;0.534878;0.536492;0.543885;0.540217;0.541454;0.542984;0.548234;0.551947;0.546695;0.552337;0.556852;0.558627;0.559944;0.565216;0.566261;0.570591;0.572296;0.575193;0.575075;0.577147;0.581078;0.581703;0.592065;0.591208;0.593858;0.600626;0.596674;0.599948;0.605187;0.607069;0.611803;0.614054;0.616493;0.619742;0.621566;0.625594;0.620627;0.628528;0.629200;0.630436;0.634359;0.636147;0.646728;0.645238;0.641507;0.648207;0.652876;0.654078;0.654902;0.662468;0.664355;0.661025;0.665351;0.673788;0.672912;0.672001;0.675919;0.677243;0.676500;0.679849;0.683479;0.692687;0.687709;0.684898;0.692997;0.691577;0.691153;0.698827;0.696893;0.698242;0.699285;0.704652;0.700104;0.704205;0.698942;0.699724;0.706522;0.700916;0.703703;0.704416;0.705264;0.707751;0.707232;0.702327;0.707839;0.708387;0.707609;0.701832;0.703831;0.709967;0.706285;0.704340;0.702721;0.703937;0.703817;0.704183;0.704588;0.703796;0.706965;0.704701;0.701960;0.702217;0.702761;0.704036;0.702528;0.701354;0.702062;0.704198;0.704691;0.709924;0.698882;0.703046;0.702522;0.703227;0.706079;0.702022;0.700498;0.705404;0.707100;0.703310;0.705486;0.705266;0.704147;0.707705;0.705963;0.705902;0.707310;0.707040;0.703084;0.707680;0.709550;0.706386;0.705543;0.710462;0.708897;0.706441;0.706964;0.704707;0.704718;0.707361;0.708548;0.706299;0.703549;0.703664;0.704817;0.702320;0.697360;0.699424;0.692463;0.690849;0.691740;0.690364;0.684126;0.683849;0.680889;0.679074;0.673785;0.673973;0.667664;0.670501;0.661458;0.658654;0.652900;0.652231;0.647306;0.641455;0.640957;0.633047;0.629288;0.625356;0.619833;0.618761;0.614318;0.609772;0.602345;0.601259;0.594510;0.588900;0.589157;0.581139;0.580627;0.573635;0.569320;0.568375;0.564030;0.559889;0.559018;0.552119;0.551403;0.548934;0.544335;0.538341
0.508975;0.508599;0.509901;0.507459;0.510146;0.511203;0.511861;0.507956;0.509444;0.514273;0.510811;0.515807;0.512528;0.516350;0.519628;0.520933;0.520304;0.524338;0.523437;0.521953;0.527232;0.525857;0.527850;0.529966;0.532320;0.537663;0.533260;0.541105;0.539790;0.540903;0.544070;0.553679;0.549158;0.551695;0.552878;0.560105;0.560335;0.569067;0.563674;0.573821;0.576840;0.576033;0.586359;0.580972;0.589442;0.591673;0.600737;0.605222;0.607217;0.612057;0.614749;0.619676;0.632358;0.634040;0.636105;0.638553;0.644348;0.653545;0.658151;0.659133;0.664599;0.662767;0.669821;0.675827;0.682952;0.687113;0.690585;0.692696;0.693478;0.698923;0.704491;0.707377;0.706083;0.711611;0.715683;0.723389;0.721243;0.724092;0.719518;0.719718;0.724341;0.722637;0.728927;0.729435;0.729759;0.724723;0.723965;0.723074;0.727588;0.727577;0.728757;0.727054;0.723563;0.721148;0.721084;0.719668;0.717726;0.721118;0.714258;0.710009;0.710295;0.705135;0.708871;0.702618;0.703366;0.703132;0.701577;0.691583;0.696819;0.690443;0.692864;0.695951;0.690917;0.687067;0.693653;0.691721;0.690937;0.690534;0.687514;0.686156;0.690665;0.692104;0.689654;0.694628;0.689863;0.690385;0.692179;0.700461;0.700468;0.699620;0.704805;0.703559;0.712552;0.709832;0.714196;0.713545;0.714298;0.717091;0.718134;0.720796;0.722480;0.722931;0.732757;0.732625;0.737524;0.735198;0.737309;0.732090;0.737814;0.737412;0.737704;0.744768;0.748905;0.744849;0.747592;0.747470;0.744455;0.744467;0.742246;0.737450;0.740687;0.734798;0.736120;0.730114;0.727811;0.723683;0.727150;0.718024;0.718167;0.713054;0.710593;0.703216;0.698295;0.693793;0.685347;0.682742;0.685679;0.677122;0.673337;0.666854;0.656341;0.653898;0.647818;0.645088;0.637117;0.637859;0.627424;0.623336;0.615539;0.606713;0.604039;0.602098;0.598552;0.590862;0.585010;0.584333;0.577121;0.574695;0.569630;0.566608
0.503733;0.504005;0.502847;0.503810;0.503578;0.509060;0.508230;0.503021;0.503933;0.510880;0.506016;0.509502;0.509116;0.508945;0.513211;0.513259;0.513100;0.517883;0.519196;0.522314;0.522190;0.524040;0.520999;0.530536;0.531616;0.533074;0.534677;0.536312;0.546086;0.547329;0.549329;0.553799;0.553234;0.561012;0.562479;0.564628;0.573388;0.575034;0.581447;0.585083;0.593176;0.599857;0.601415;0.611642;0.617341;0.623543;0.632398;0.636467;0.640867;0.652870;0.658918;0.662977;0.672724;0.683273;0.683299;0.699296;0.704221;0.709149;0.719018;0.721287;0.727796;0.742783;0.744029;0.752313;0.766596;0.766678;0.777474;0.778940;0.786904;0.796726;0.797214;0.807012;0.808711;0.812604;0.821785;0.818818;0.823240;0.824994;0.829117;0.836115;0.826484;0.833001;0.829204;0.836243;0.834978;0.836510;0.837419;0.831169;0.834134;0.829949;0.828124;0.826144;0.822605;0.816340;0.810615;0.812586;0.807704;0.803206;0.799938;0.795635;0.787431;0.785761;0.779156;0.778096;0.775832;0.769297;0.760413;0.758604;0.754498;0.746582;0.742562;0.738562;0.734084;0.732223;0.724364;0.725889;0.716913;0.716179;0.708075;0.702404;0.699170;0.697227;0.698530;0.689856;0.683371;0.683980;0.678778;0.681649;0.674040;0.673180;0.678111;0.666758;0.667950;0.665492;0.662349;0.660501;0.659344;0.659699;0.653796;0.657999;0.651828;0.646626;0.656311;0.650190;0.646296;0.645706;0.647507;0.643677;0.639972;0.644095;0.640817;0.638666;0.635882;0.637110;0.636171;0.628229;0.629364;0.627308;0.626828;0.627084;0.619011;0.621910;0.616183;0.617547;0.612965;0.613516;0.615466;0.604657;0.606379;0.599545;0.598345;0.595868;0.592236;0.593698;0.590782;0.588510;0.582736;0.578467;0.574148;0.578649;0.569004;0.571186;0.568745;0.562812;0.562632;0.553699;0.552748;0.556122;0.552548;0.546015;0.544262;0.543721;0.541083;0.539495;0.538613;0.537083;0.533161;0.529160;0.532467;0.526254
0.569126;0.575015;0.583144;0.580981;0.587243;0.592817;0.599770;0.606649;0.613698;0.618910;0.619833;0.633440;0.636695;0.644328;0.646869;0.658924;0.664204;0.672877;0.676640;0.681867;0.687072;0.696645;0.701506;0.707350;0.714223;0.721353;0.726298;0.728952;0.733131;0.736826;0.746149;0.751161;0.754359;0.757993;0.759748;0.766931;0.767000;0.768288;0.772256;0.770471;0.779944;0.780170;0.774550;0.779359;0.777376;0.779819;0.777988;0.775833;0.775369;0.771694;0.772226;0.774259;0.767083;0.768935;0.759903;0.762746;0.754220;0.753768;0.755984;0.749308;0.741879;0.739156;0.737105;0.737006;0.729611;0.722635;0.721768;0.719577;0.711652;0.708595;0.704327;0.701206;0.693672;0.695265;0.690185;0.687456;0.682821;0.679738;0.671634;0.667794;0.666545;0.665169;0.659072;0.660697;0.656713;0.653737;0.651059;0.648834;0.644033;0.644106;0.640465;0.639331;0.637004;0.637642;0.631489;0.634478;0.636657;0.631234;0.629440;0.627246;0.626042;0.624823;0.624592;0.618343;0.622482;0.624481;0.621811;0.617885;0.624956;0.623643;0.616441;0.620641;0.620455;0.614469;0.610546;0.620014;0.619396;0.621007;0.616160;0.620956;0.619947;0.620887;0.617773;0.624409;0.621328;0.620913;0.624434;0.620831;0.624495;0.624916;0.629555;0.628318;0.624485;0.625413;0.629399;0.627108;0.628964;0.632369;0.630862;0.631453;0.630070;0.634207;0.634645;0.635315;0.629275;0.635273;0.636827;0.634442;0.636709;0.633554;0.636170;0.632146;0.632441;0.637228;0.634324;0.632454;0.631201;0.631421;0.630611;0.628734;0.629463;0.625907;0.625383;0.622148;0.621472;0.620353;0.620831;0.615942;0.618825;0.609425;0.608565;0.606547;0.602123;0.602511;0.597935;0.599534;0.596274;0.592503;0.590292;0.584401;0.585713;0.581497;0.578778;0.576427;0.568151;0.571813;0.566310;0.563071;0.565068;0.557376;0.557480;0.551816;0.549938;0.546790;0.548218;0.545350;0.539507;0.539604;0.539801;0.535418
0.563722;0.568469;0.568690;0.579510;0.583141;0.581396;0.591125;0.597431;0.601805;0.600782;0.609968;0.618924;0.621100;0.632358;0.638093;0.642468;0.647945;0.651462;0.657592;0.664568;0.673579;0.674603;0.681637;0.691705;0.699349;0.706434;0.708996;0.714860;0.718220;0.725277;0.734014;0.734972;0.741864;0.746426;0.753467;0.756683;0.756108;0.764163;0.768076;0.771104;0.777037;0.780448;0.783284;0.785281;0.787218;0.792466;0.792676;0.795808;0.801125;0.801648;0.804694;0.797047;0.804392;0.805336;0.810928;0.806597;0.801728;0.806486;0.809707;0.805193;0.804792;0.810495;0.807081;0.805873;0.797036;0.809038;0.808788;0.804576;0.802495;0.806906;0.800244;0.795112;0.798911;0.797152;0.794351;0.791225;0.788348;0.788066;0.782294;0.780648;0.779818;0.776515;0.778064;0.771899;0.771901;0.764144;0.766181;0.760441;0.756115;0.748594;0.751705;0.747299;0.739631;0.736356;0.734540;0.730531;0.727493;0.720513;0.715812;0.715774;0.711124;0.704085;0.700940;0.697814;0.692627;0.692265;0.684582;0.683275;0.675424;0.669873;0.668861;0.665639;0.663154;0.657222;0.650566;0.647133;0.645077;0.640020;0.638309;0.636168;0.629068;0.626635;0.624844;0.620854;0.614674;0.611238;0.607440;0.602372;0.601609;0.599155;0.594996;0.588230;0.592423;0.586827;0.584240;0.579623;0.572614;0.571196;0.569571;0.569949;0.567661;0.562029;0.562292;0.554043;0.549976;0.554121;0.554174;0.548792;0.544770;0.543795;0.540315;0.543366;0.536981;0.533017;0.530521;0.523669;0.526833;0.524692;0.521950;0.520210;0.521503;0.520511;0.514618;0.520068;0.520757;0.517331;0.510392;0.511545;0.509603;0.510906;0.514322;0.509109;0.509762;0.504950;0.507667;0.508723;0.506247;0.508603;0.504788;0.504069;0.500802;0.503812;0.504422;0.502139;0.499502;0.499992;0.499730;0.502654;0.501392;0.501135;0.503158;0.505641;0.496274;0.499290;0.499180;0.502812;0.497135;0.499634;0.495793;0.498195
0.518004;0.517834;0.518472;0.525948;0.528278;0.529858;0.527175;0.527835;0.530447;0.530096;0.538415;0.535901;0.539962;0.535466;0.540902;0.545655;0.545353;0.547918;0.544905;0.555633;0.554098;0.554759;0.556378;0.554218;0.557151;0.564604;0.565577;0.566836;0.565087;0.567851;0.570897;0.571647;0.575105;0.580538;0.577737;0.580924;0.577748;0.576846;0.582304;0.586672;0.587455;0.587821;0.588305;0.590554;0.596390;0.598032;0.593824;0.600426;0.595975;0.596091;0.593995;0.601334;0.605957;0.603133;0.604920;0.604774;0.606630;0.604028;0.610387;0.615253;0.614669;0.614244;0.612230;0.621392;0.622166;0.620766;0.619647;0.624251;0.630669;0.629305;0.636471;0.637804;0.638948;0.641302;0.646274;0.650923;0.653954;0.653209;0.663672;0.659561;0.670528;0.678530;0.684828;0.680030;0.686520;0.689902;0.693214;0.702581;0.708617;0.711338;0.718564;0.726464;0.731221;0.736492;0.740659;0.753779;0.751259;0.760531;0.765154;0.771416;0.773732;0.785454;0.784168;0.798759;0.798581;0.803629;0.811177;0.813656;0.811424;0.820960;0.820100;0.823118;0.828097;0.827453;0.833108;0.832810;0.838613;0.833880;0.841549;0.839280;0.840348;0.837158;0.834533;0.835801;0.833756;0.827066;0.827243;0.824671;0.823929;0.821357;0.817693;0.814829;0.803703;0.801834;0.796959;0.792001;0.790673;0.783720;0.775192;0.773698;0.764462;0.754781;0.754963;0.752790;0.742429;0.733876;0.723907;0.719043;0.714167;0.708401;0.699472;0.702054;0.689239;0.682908;0.677375;0.671640;0.664943;0.662513;0.648589;0.650029;0.640413;0.635339;0.630649;0.629077;0.624480;0.618096;0.613730;0.608170;0.601495;0.600253;0.597662;0.593345;0.584003;0.580797;0.576872;0.573030;0.570545;0.568467;0.561767;0.561448;0.561881;0.555563;0.555646;0.546133;0.549361;0.542436;0.544872;0.538495;0.539304;0.538399;0.534186;0.532023;0.530048;0.522412;0.529765;0.520296;0.523664;0.520816;0.518487;0.516743
0.510575;0.512307;0.514482;0.515143;0.517307;0.517188;0.518602;0.520209;0.525859;0.521559;0.527982;0.530343;0.524727;0.529091;0.531082;0.530780;0.535451;0.537836;0.535882;0.534604;0.541233;0.542326;0.541412;0.544189;0.546814;0.553539;0.548788;0.554278;0.553342;0.557939;0.553823;0.553881;0.560969;0.563740;0.562513;0.563897;0.568205;0.565227;0.571974;0.570868;0.573867;0.575127;0.579637;0.579776;0.582025;0.575726;0.584562;0.588799;0.585022;0.587177;0.584722;0.591640;0.594310;0.598801;0.599143;0.596772;0.597500;0.604924;0.606054;0.603625;0.614261;0.612298;0.611588;0.614668;0.617180;0.618439;0.613691;0.621025;0.619514;0.626091;0.624397;0.624631;0.625868;0.626312;0.632728;0.632403;0.633543;0.632979;0.638188;0.636957;0.638773;0.641416;0.640960;0.642926;0.644133;0.645046;0.649400;0.649871;0.646233;0.649057;0.647644;0.652144;0.651758;0.650284;0.655274;0.653079;0.659247;0.660361;0.662040;0.668758;0.666883;0.668124;0.670560;0.671799;0.673753;0.674769;0.676391;0.674414;0.681794;0.679761;0.682715;0.691051;0.685215;0.689294;0.698617;0.692561;0.696030;0.700572;0.705231;0.705342;0.707267;0.709129;0.713366;0.719850;0.714755;0.725352;0.726938;0.730643;0.734453;0.737506;0.741358;0.744113;0.744472;0.747500;0.751590;0.754045;0.754289;0.760804;0.764272;0.763970;0.769807;0.775949;0.778907;0.774260;0.783664;0.778613;0.786585;0.783731;0.784827;0.785353;0.787821;0.789945;0.789429;0.794491;0.787333;0.791582;0.789056;0.788797;0.785633;0.785764;0.778040;0.780015;0.772531;0.769907;0.770228;0.763030;0.761987;0.761202;0.750274;0.746893;0.740582;0.737840;0.728562;0.726429;0.717225;0.714852;0.711829;0.700554;0.691364;0.690167;0.684587;0.673363;0.666666;0.661328;0.655916;0.646424;0.644502;0.636751;0.629693;0.625819;0.621929;0.613788;0.604413;0.601895;0.593753;0.591628;0.584591;0.580804;0.576659;0.569351
0.504446;0.507305;0.507370;0.507207;0.504156;0.506379;0.506014;0.507208;0.507976;0.510818;0.514066;0.505930;0.510607;0.514789;0.511733;0.513473;0.519967;0.521614;0.512971;0.521662;0.520194;0.523213;0.520695;0.524534;0.527996;0.523912;0.528497;0.527897;0.535772;0.532410;0.534261;0.534408;0.543905;0.542238;0.543814;0.546207;0.555420;0.558870;0.554521;0.563215;0.565784;0.561914;0.572226;0.574116;0.575217;0.584231;0.582752;0.592129;0.590826;0.597117;0.602154;0.607225;0.610679;0.615603;0.618577;0.623580;0.625182;0.626434;0.636008;0.638331;0.645613;0.646988;0.654321;0.654442;0.659919;0.665899;0.669751;0.673678;0.676247;0.677958;0.683900;0.682412;0.688374;0.690212;0.688405;0.690537;0.693808;0.697640;0.699642;0.698954;0.701708;0.698297;0.698070;0.702120;0.701551;0.702155;0.701860;0.700239;0.703531;0.700652;0.700210;0.700811;0.694372;0.695999;0.696492;0.695153;0.691193;0.691850;0.689414;0.691101;0.689484;0.685176;0.686126;0.679843;0.677119;0.675513;0.678276;0.677502;0.675691;0.677621;0.671804;0.672920;0.669813;0.672637;0.667496;0.673221;0.671560;0.672843;0.675100;0.674495;0.678030;0.676138;0.683301;0.681542;0.682726;0.683621;0.690157;0.690137;0.694827;0.697671;0.706192;0.704109;0.703950;0.707095;0.712004;0.718968;0.722174;0.723956;0.729450;0.735785;0.737044;0.738195;0.742155;0.742938;0.743753;0.750135;0.750160;0.752047;0.761321;0.760780;0.765088;0.763498;0.764917;0.764297;0.768800;0.762598;0.766732;0.764092;0.765269;0.764152;0.762759;0.762331;0.756274;0.760317;0.755750;0.751773;0.751382;0.750028;0.739398;0.734996;0.734069;0.728943;0.725135;0.716861;0.711325;0.706212;0.696260;0.691077;0.689587;0.686131;0.683604;0.667546;0.663839;0.660252;0.652461;0.646056;0.639343;0.636360;0.622149;0.617778;0.615453;0.606640;0.606074;0.597252;0.591755;0.585839;0.580091;0.578849;0.570560;0.570167
0.523927;0.523040;0.527980;0.524516;0.529732;0.529233;0.535083;0.529538;0.532787;0.542530;0.538762;0.543321;0.549423;0.550816;0.552355;0.560924;0.562449;0.560235;0.568694;0.570372;0.576682;0.578965;0.582412;0.582667;0.590883;0.594543;0.597410;0.604313;0.606318;0.612861;0.619658;0.625251;0.628066;0.628433;0.636374;0.643959;0.653359;0.658250;0.660389;0.666756;0.675169;0.685457;0.691186;0.694213;0.698474;0.712650;0.721993;0.728097;0.729017;0.739654;0.747733;0.754513;0.763681;0.771277;0.784810;0.786658;0.794419;0.799652;0.808968;0.814373;0.821602;0.829128;0.838990;0.841889;0.850713;0.857425;0.859392;0.862112;0.870461;0.873182;0.880119;0.883729;0.882959;0.885656;0.889958;0.893521;0.897122;0.898493;0.896972;0.896560;0.895879;0.894634;0.892485;0.893743;0.891734;0.885256;0.882106;0.881392;0.870765;0.872630;0.863719;0.863984;0.854280;0.844986;0.842509;0.828968;0.826452;0.817102;0.814591;0.806638;0.797313;0.788607;0.777591;0.772983;0.763500;0.754248;0.747227;0.739688;0.731571;0.722021;0.717537;0.711409;0.704547;0.688696;0.686018;0.679359;0.671930;0.661796;0.655269;0.651144;0.642441;0.634158;0.637151;0.625673;0.626179;0.615065;0.615324;0.605386;0.598287;0.599859;0.589922;0.590334;0.583835;0.580540;0.574938;0.569314;0.575641;0.568218;0.561177;0.562415;0.555446;0.556610;0.553265;0.553635;0.547754;0.545522;0.542789;0.542791;0.535829;0.539763;0.538635;0.535811;0.537900;0.538080;0.528491;0.534752;0.530356;0.528803;0.523900;0.521489;0.521829;0.522967;0.517186;0.517271;0.521981;0.515332;0.514165;0.517457;0.517127;0.516188;0.511413;0.513896;0.511411;0.515002;0.509590;0.512031;0.513986;0.509545;0.504321;0.508360;0.509185;0.503079;0.504545;0.504860;0.500925;0.504626;0.504273;0.500256;0.503325;0.501189;0.498012;0.504031;0.505358;0.496104;0.498837;0.492772;0.496644;0.499360;0.496080;0.501757
0.506604;0.515154;0.511803;0.512981;0.512063;0.519134;0.519658;0.519502;0.516961;0.522025;0.520156;0.518473;0.521923;0.521393;0.522275;0.520083;0.520514;0.525572;0.530550;0.525277;0.522085;0.534454;0.532242;0.527886;0.528870;0.531772;0.533845;0.535878;0.534491;0.537383;0.540733;0.535398;0.542644;0.536756;0.536442;0.538807;0.545446;0.543732;0.545329;0.541914;0.544145;0.541444;0.541657;0.550863;0.548238;0.551665;0.548973;0.544536;0.550065;0.549347;0.549751;0.550972;0.551974;0.552116;0.551912;0.552262;0.553395;0.552576;0.558078;0.556823;0.557451;0.556146;0.561569;0.561304;0.565004;0.566198;0.565682;0.567912;0.575286;0.573014;0.579773;0.581999;0.586187;0.588038;0.587862;0.595330;0.597247;0.603111;0.604292;0.607355;0.619239;0.619918;0.624289;0.627117;0.634171;0.645643;0.644705;0.653889;0.660113;0.664886;0.670068;0.679949;0.684765;0.694694;0.696489;0.707531;0.720274;0.723285;0.719798;0.735151;0.745438;0.747435;0.757100;0.766424;0.770357;0.774929;0.786592;0.792446;0.794782;0.797718;0.803214;0.810007;0.815522;0.817866;0.826195;0.832011;0.829642;0.836087;0.839951;0.843426;0.847728;0.840720;0.852279;0.845721;0.847116;0.850920;0.847907;0.848843;0.849283;0.847482;0.843607;0.846353;0.842820;0.839299;0.835889;0.837789;0.832127;0.830913;0.827679;0.826310;0.818697;0.814636;0.813840;0.804700;0.801783;0.798247;0.795475;0.787076;0.788525;0.782231;0.773688;0.769787;0.760561;0.767493;0.753298;0.749511;0.739654;0.739344;0.734812;0.728022;0.725364;0.717972;0.711382;0.704236;0.702743;0.694321;0.693473;0.686715;0.681949;0.678955;0.673352;0.669936;0.658553;0.652326;0.642958;0.639653;0.635901;0.635340;0.627476;0.622370;0.615036;0.614075;0.613414;0.603588;0.595232;0.593206;0.589269;0.583934;0.581328;0.571863;0.568383;0.565420;0.562414;0.560104;0.558354;0.556123;0.550428;0.547202;0.545272;0.540124
0.525231;0.524494;0.523192;0.529132;0.529814;0.530752;0.531202;0.532012;0.539268;0.537114;0.535979;0.547666;0.549718;0.544964;0.558312;0.555092;0.557697;0.563739;0.568511;0.571185;0.569232;0.576927;0.576729;0.587400;0.584838;0.590918;0.596151;0.599546;0.605966;0.610462;0.615905;0.618198;0.626339;0.626211;0.635016;0.641247;0.652018;0.660555;0.661559;0.670905;0.677341;0.686271;0.693615;0.698581;0.702394;0.712096;0.720159;0.735043;0.739324;0.748124;0.750294;0.762412;0.765386;0.775702;0.785656;0.793937;0.800671;0.808057;0.820939;0.825737;0.829731;0.836968;0.846626;0.852684;0.862211;0.870621;0.867883;0.876027;0.888630;0.890098;0.891247;0.898340;0.896089;0.909046;0.903388;0.906296;0.906673;0.911238;0.914931;0.914164;0.912940;0.908881;0.906344;0.905976;0.907629;0.897055;0.898486;0.889231;0.886140;0.880702;0.874705;0.868081;0.856802;0.855704;0.847029;0.839720;0.830012;0.824192;0.815111;0.810303;0.799854;0.788340;0.784973;0.771467;0.766012;0.755164;0.746965;0.738747;0.730607;0.716134;0.709829;0.702246;0.687835;0.685668;0.676433;0.667967;0.660793;0.652705;0.642764;0.637801;0.632429;0.624402;0.619365;0.613441;0.611108;0.605353;0.596453;0.595837;0.587171;0.583884;0.580628;0.574030;0.570578;0.563969;0.562260;0.557744;0.557906;0.555453;0.549819;0.547209;0.546112;0.539168;0.538908;0.538046;0.539385;0.529303;0.532985;0.534801;0.529559;0.527556;0.523474;0.527396;0.519514;0.519336;0.519446;0.518436;0.515263;0.513984;0.518040;0.512125;0.516088;0.512895;0.511787;0.513799;0.508644;0.509643;0.507179;0.509805;0.506425;0.506187;0.503892;0.510514;0.506158;0.504229;0.505903;0.498546;0.504425;0.498388;0.502328;0.497821;0.501730;0.503189;0.499378;0.499437;0.492199;0.498003;0.494358;0.498199;0.497269;0.494231;0.499642;0.498059;0.498292;0.497328;0.495924;0.490088;0.493559;0.497678;0.487604;0.492713
0.511502;0.506509;0.507469;0.511023;0.507691;0.512666;0.517210;0.514617;0.508796;0.513482;0.513387;0.514004;0.518850;0.518362;0.520842;0.516951;0.517639;0.518355;0.518485;0.525739;0.525565;0.525552;0.521256;0.523856;0.525400;0.530644;0.523693;0.528072;0.530470;0.531160;0.532565;0.532035;0.530877;0.534160;0.532410;0.534398;0.536181;0.532831;0.531429;0.536389;0.538823;0.534550;0.535702;0.534163;0.533639;0.538701;0.539395;0.537583;0.541369;0.537961;0.542784;0.542922;0.541053;0.540854;0.540665;0.539191;0.545268;0.543836;0.544255;0.536400;0.542928;0.544003;0.546383;0.547795;0.550533;0.548544;0.553314;0.552306;0.553234;0.556583;0.559290;0.554592;0.560075;0.565600;0.570581;0.566888;0.567311;0.577185;0.577949;0.580606;0.581953;0.594242;0.589312;0.590670;0.594353;0.604093;0.611968;0.612119;0.609648;0.624938;0.622473;0.630882;0.638795;0.643797;0.649072;0.651192;0.660529;0.659956;0.671105;0.673993;0.678945;0.680869;0.694450;0.694942;0.702903;0.708160;0.712799;0.716856;0.730578;0.738123;0.731570;0.742676;0.744924;0.754880;0.752313;0.763832;0.766410;0.766970;0.779127;0.782115;0.787577;0.785415;0.795556;0.796358;0.799761;0.802215;0.805681;0.812408;0.813095;0.820364;0.820095;0.819615;0.824862;0.824944;0.833373;0.832515;0.838304;0.832265;0.835678;0.835735;0.836561;0.838423;0.839780;0.839539;0.839617;0.841269;0.840732;0.842304;0.836087;0.834060;0.837496;0.835014;0.830997;0.833481;0.829005;0.827633;0.822832;0.825933;0.818018;0.815240;0.812680;0.808717;0.801088;0.801443;0.789104;0.790416;0.782431;0.776554;0.773775;0.762213;0.760664;0.757524;0.745412;0.739285;0.734727;0.727033;0.721174;0.717800;0.703005;0.700910;0.690428;0.684145;0.674829;0.671306;0.665863;0.661502;0.651533;0.643447;0.637087;0.631199;0.623415;0.618238;0.616030;0.608787;0.600882;0.595708;0.588710;0.584267;0.579084;0.577555
0.507470;0.503949;0.509494;0.506791;0.509147;0.509527;0.505775;0.509266;0.512960;0.512085;0.512131;0.513752;0.515024;0.517646;0.517565;0.515484;0.522547;0.524364;0.521262;0.521196;0.522898;0.526373;0.526206;0.525375;0.528800;0.531031;0.528967;0.531953;0.529652;0.534911;0.534089;0.534580;0.536719;0.541811;0.538457;0.538063;0.541240;0.541878;0.544623;0.542014;0.549043;0.545941;0.545819;0.548673;0.556221;0.551632;0.556699;0.556816;0.559810;0.556697;0.556632;0.561499;0.565592;0.568472;0.563200;0.571715;0.571838;0.571403;0.576117;0.576488;0.575145;0.578427;0.582207;0.580776;0.588554;0.585058;0.589142;0.594107;0.589472;0.594651;0.600232;0.597092;0.601010;0.605346;0.606835;0.603553;0.613104;0.609140;0.613524;0.613692;0.617791;0.621288;0.625495;0.627679;0.628813;0.628971;0.637723;0.639226;0.640526;0.642175;0.649902;0.647911;0.653383;0.657232;0.659994;0.662001;0.667600;0.666397;0.674036;0.679000;0.679135;0.677936;0.683900;0.689270;0.693167;0.694037;0.696035;0.700684;0.703871;0.705546;0.709812;0.714332;0.716770;0.714390;0.723823;0.732179;0.736549;0.736018;0.737319;0.743862;0.740890;0.745008;0.750748;0.753971;0.758679;0.761626;0.762963;0.765778;0.765001;0.769875;0.775677;0.776129;0.779334;0.782081;0.785452;0.788561;0.789554;0.795910;0.791022;0.795554;0.797778;0.804622;0.803766;0.806013;0.806148;0.804558;0.808472;0.807386;0.809840;0.812328;0.806918;0.810080;0.809299;0.806232;0.801962;0.803250;0.803972;0.801257;0.794757;0.802218;0.794183;0.785215;0.789376;0.779810;0.784746;0.776374;0.772987;0.760978;0.762342;0.755236;0.748037;0.744189;0.735779;0.731105;0.727006;0.719045;0.715923;0.701716;0.701396;0.694879;0.683875;0.680676;0.672870;0.665632;0.658216;0.652816;0.644650;0.638979;0.636479;0.624991;0.623637;0.616764;0.607008;0.603217;0.599071;0.592592;0.585500;0.582454;0.573837;0.574166
0.521439;0.526531;0.520194;0.521282;0.526048;0.530411;0.525572;0.533009;0.529839;0.532202;0.534327;0.537127;0.540964;0.543391;0.544347;0.540797;0.550721;0.550074;0.553961;0.548983;0.555147;0.558038;0.557692;0.561050;0.559675;0.563692;0.564285;0.568169;0.571409;0.569723;0.570010;0.572458;0.577200;0.571569;0.575351;0.578454;0.579958;0.574360;0.573460;0.583557;0.579325;0.584230;0.580613;0.580691;0.581082;0.579735;0.582964;0.579729;0.581349;0.580178;0.579101;0.581002;0.577759;0.579525;0.578236;0.574865;0.575106;0.575939;0.580388;0.575224;0.574954;0.576682;0.576537;0.577010;0.575063;0.571665;0.571426;0.568501;0.575171;0.573543;0.572296;0.572054;0.574046;0.574841;0.575534;0.576355;0.574911;0.577969;0.580042;0.574688;0.579109;0.579391;0.579517;0.582518;0.587849;0.583025;0.588010;0.595182;0.595153;0.600919;0.597444;0.602270;0.603724;0.605787;0.609173;0.614139;0.616759;0.617616;0.623716;0.626271;0.634039;0.636374;0.639278;0.642889;0.649528;0.653901;0.650814;0.660956;0.665095;0.670338;0.669628;0.672447;0.683473;0.683613;0.691634;0.694674;0.695908;0.700976;0.706967;0.710496;0.721012;0.716081;0.721406;0.727369;0.734324;0.735749;0.743905;0.744212;0.750808;0.755781;0.761338;0.767315;0.763823;0.770563;0.775625;0.782651;0.784055;0.790526;0.789872;0.795732;0.796676;0.799491;0.799304;0.803198;0.810554;0.807017;0.812812;0.808494;0.810974;0.819531;0.817592;0.821091;0.816917;0.817956;0.815826;0.818555;0.816359;0.817955;0.811378;0.805676;0.808271;0.797651;0.798812;0.796603;0.793469;0.790194;0.786798;0.780963;0.774079;0.771520;0.767447;0.758049;0.754534;0.746117;0.736918;0.735730;0.724694;0.722328;0.709771;0.707492;0.700672;0.687106;0.686917;0.676392;0.667889;0.662904;0.654009;0.648798;0.643026;0.639868;0.628293;0.621320;0.614431;0.608111;0.609939;0.599243;0.592702;0.583483;0.580288;0.575335
0.513273;0.506428;0.512637;0.513199;0.513768;0.515028;0.513970;0.519390;0.513924;0.518585;0.523366;0.520390;0.520798;0.521764;0.522866;0.528834;0.523208;0.527871;0.525613;0.531465;0.535784;0.531493;0.536295;0.543494;0.545457;0.540092;0.547222;0.546596;0.550306;0.554308;0.556904;0.556699;0.557940;0.557399;0.562960;0.567526;0.571969;0.572768;0.571119;0.574737;0.577088;0.579010;0.585917;0.586040;0.588304;0.591855;0.595504;0.599102;0.601259;0.606762;0.611178;0.613721;0.614732;0.625340;0.623824;0.622902;0.635271;0.631845;0.639562;0.640043;0.647798;0.652056;0.658279;0.661475;0.660554;0.665878;0.670971;0.678094;0.681463;0.686100;0.693045;0.690422;0.702759;0.699397;0.708306;0.712587;0.718363;0.719289;0.730273;0.729773;0.732766;0.738309;0.740509;0.747818;0.755939;0.751723;0.758559;0.763925;0.772803;0.773125;0.773476;0.779897;0.785862;0.788827;0.796306;0.798713;0.802215;0.800945;0.808823;0.806198;0.812706;0.816580;0.819010;0.827012;0.830287;0.831471;0.830077;0.831223;0.833221;0.835310;0.833777;0.840371;0.836948;0.842892;0.840217;0.837548;0.835925;0.834013;0.836136;0.835749;0.833732;0.828808;0.828590;0.826189;0.824249;0.823529;0.814678;0.812766;0.808356;0.806327;0.800501;0.790496;0.786448;0.784628;0.784611;0.777724;0.766494;0.768375;0.756500;0.749026;0.745017;0.741393;0.738379;0.724822;0.721290;0.714887;0.708270;0.700918;0.695266;0.692898;0.676887;0.677572;0.670292;0.664591;0.659234;0.653615;0.646601;0.645200;0.635738;0.630219;0.628426;0.620160;0.621870;0.615460;0.606845;0.609565;0.598531;0.592920;0.592441;0.588899;0.587903;0.584749;0.576174;0.574729;0.571971;0.569585;0.565074;0.562870;0.560321;0.559182;0.552404;0.549535;0.547028;0.547609;0.544263;0.544865;0.543698;0.541905;0.534014;0.533892;0.531583;0.533837;0.535781;0.525613;0.529565;0.524922;0.522841;0.525075;0.521236;0.523412
0.567652;0.574475;0.574370;0.582198;0.587541;0.589723;0.601659;0.601381;0.608689;0.617120;0.616414;0.625748;0.632317;0.639903;0.643809;0.646965;0.661045;0.661768;0.667899;0.670040;0.677123;0.688922;0.692599;0.700368;0.698480;0.708883;0.712186;0.715895;0.721754;0.726425;0.731627;0.733746;0.733972;0.737916;0.743611;0.748186;0.750822;0.747096;0.747805;0.753342;0.746024;0.746907;0.746820;0.748367;0.744345;0.745076;0.741984;0.737534;0.734547;0.737641;0.732615;0.729121;0.726947;0.723082;0.718908;0.710468;0.705135;0.706809;0.691081;0.687233;0.683904;0.683157;0.673652;0.671509;0.663657;0.659984;0.650776;0.646966;0.643561;0.639406;0.632463;0.625677;0.618766;0.613903;0.612180;0.603102;0.600555;0.598879;0.592751;0.594107;0.586011;0.580559;0.579466;0.576715;0.577575;0.572187;0.566783;0.569095;0.566945;0.564808;0.564187;0.559920;0.560712;0.556357;0.560072;0.559090;0.555586;0.560555;0.559072;0.556041;0.555947;0.563310;0.561729;0.561431;0.559471;0.563261;0.562673;0.564560;0.562801;0.570577;0.571891;0.575963;0.574888;0.575942;0.582095;0.580004;0.585414;0.587335;0.593027;0.592771;0.596187;0.603274;0.604636;0.606340;0.617852;0.614853;0.615167;0.621856;0.628052;0.636505;0.638474;0.643147;0.646687;0.649684;0.654366;0.661500;0.657595;0.668326;0.668854;0.675019;0.677321;0.681517;0.682923;0.688948;0.689244;0.697140;0.694366;0.700839;0.702620;0.703869;0.707764;0.714230;0.714723;0.710113;0.720627;0.714892;0.715492;0.716139;0.716759;0.715117;0.714008;0.716582;0.709167;0.706534;0.708156;0.707390;0.703758;0.701710;0.695869;0.694127;0.692681;0.686408;0.683274;0.675247;0.671062;0.668776;0.667877;0.660330;0.652202;0.651564;0.642597;0.638085;0.634097;0.629472;0.625323;0.622890;0.611390;0.607620;0.604726;0.596499;0.597579;0.592493;0.585572;0.574358;0.577600;0.569314;0.565633;0.565334;0.560326;0.558875
0.518987;0.519851;0.523454;0.518031;0.524729;0.521964;0.523623;0.529340;0.530019;0.536316;0.533599;0.536466;0.538776;0.536446;0.539049;0.538612;0.545643;0.546224;0.550621;0.550901;0.551997;0.554993;0.556481;0.561716;0.565417;0.564628;0.564371;0.566797;0.566963;0.566083;0.568474;0.569542;0.571076;0.575789;0.572089;0.577128;0.580588;0.578753;0.580295;0.578088;0.580021;0.585113;0.577025;0.578400;0.585598;0.583669;0.584498;0.582415;0.583767;0.583254;0.582959;0.584935;0.585047;0.584035;0.585629;0.579242;0.580271;0.580973;0.583180;0.580068;0.582682;0.579985;0.576198;0.578929;0.576190;0.574239;0.577472;0.576938;0.572452;0.569101;0.568884;0.571411;0.567699;0.573870;0.566777;0.567862;0.564286;0.565847;0.567678;0.564675;0.564764;0.564869;0.558637;0.563379;0.562896;0.564072;0.558596;0.558187;0.558352;0.554656;0.556777;0.557041;0.555827;0.560032;0.557721;0.560187;0.561205;0.560825;0.558678;0.558950;0.561107;0.560720;0.569545;0.565101;0.566307;0.572686;0.571233;0.572521;0.572835;0.577859;0.582426;0.591805;0.592883;0.593281;0.599580;0.606422;0.613502;0.615095;0.609987;0.625407;0.629038;0.635139;0.645002;0.651249;0.663169;0.666174;0.676055;0.679840;0.693589;0.697801;0.707841;0.716689;0.727041;0.733517;0.745430;0.750627;0.759127;0.770988;0.783773;0.787897;0.793891;0.805662;0.811329;0.820854;0.827369;0.832560;0.844274;0.854686;0.858207;0.860653;0.869357;0.871728;0.879494;0.884728;0.885548;0.888153;0.887687;0.895889;0.893296;0.894643;0.892945;0.893430;0.888860;0.887374;0.882850;0.879911;0.876880;0.872521;0.870619;0.863544;0.857318;0.851859;0.843360;0.837163;0.828158;0.820389;0.816190;0.807388;0.794975;0.791206;0.780338;0.768493;0.756054;0.751260;0.739517;0.735434;0.724434;0.712117;0.702834;0.692548;0.690390;0.677187;0.671292;0.658907;0.648409;0.643547;0.634245;0.621953;0.617440;0.616476
0.555309;0.556336;0.562663;0.565784;0.573448;0.575655;0.579344;0.582596;0.589468;0.591957;0.601738;0.598595;0.610036;0.610255;0.615762;0.619185;0.630978;0.631049;0.638917;0.642959;0.648642;0.650097;0.652949;0.661396;0.662088;0.673136;0.675655;0.679293;0.686818;0.685596;0.686934;0.693292;0.698563;0.698739;0.703851;0.698962;0.708118;0.708462;0.715239;0.710088;0.710108;0.714333;0.712939;0.716855;0.718108;0.714819;0.716089;0.719458;0.717993;0.712690;0.717009;0.713444;0.709107;0.704643;0.707445;0.703111;0.703109;0.696700;0.696739;0.693816;0.690893;0.683943;0.684949;0.680132;0.678379;0.678705;0.681751;0.675205;0.669589;0.668267;0.665709;0.661756;0.660240;0.658940;0.658217;0.650925;0.659872;0.649963;0.648320;0.647774;0.649778;0.648170;0.645708;0.640489;0.639443;0.640173;0.636579;0.639856;0.638252;0.643282;0.639061;0.638708;0.636516;0.640776;0.642068;0.643142;0.642075;0.642094;0.642181;0.643713;0.646993;0.644150;0.645832;0.648328;0.649697;0.650841;0.646438;0.649023;0.652969;0.658178;0.655525;0.658344;0.664089;0.663346;0.661308;0.666156;0.664187;0.666735;0.669923;0.678501;0.668168;0.670440;0.672159;0.677448;0.671668;0.677225;0.681308;0.682115;0.686843;0.684850;0.678343;0.683923;0.688637;0.687680;0.688837;0.683585;0.691152;0.690837;0.690396;0.692083;0.693343;0.692192;0.693516;0.694486;0.692658;0.694871;0.692868;0.696970;0.695987;0.697685;0.693531;0.690307;0.693551;0.689446;0.691175;0.687903;0.687153;0.689246;0.687239;0.687874;0.681358;0.678761;0.673165;0.678685;0.668903;0.671611;0.664628;0.665238;0.661332;0.654632;0.653703;0.649491;0.645847;0.643667;0.638446;0.634036;0.631582;0.626436;0.624476;0.623971;0.614390;0.615431;0.611179;0.605389;0.601581;0.594753;0.598116;0.593549;0.586022;0.587084;0.583413;0.577913;0.574329;0.571871;0.569634;0.561266;0.561749;0.559020;0.554274;0.551275
0.550713;0.556584;0.562172;0.567715;0.569294;0.572635;0.579046;0.578606;0.585024;0.590477;0.590755;0.597554;0.602727;0.607678;0.613519;0.614677;0.624830;0.623471;0.632730;0.638796;0.640877;0.642079;0.652438;0.654039;0.661430;0.666064;0.669992;0.673942;0.680114;0.680938;0.680671;0.689579;0.694664;0.693278;0.702456;0.707216;0.707276;0.707665;0.711427;0.710133;0.709243;0.713263;0.717278;0.720042;0.710316;0.717672;0.717731;0.718530;0.714930;0.723213;0.717917;0.714133;0.719217;0.712718;0.710379;0.709051;0.712246;0.704817;0.703212;0.707455;0.706021;0.701739;0.700495;0.699216;0.689122;0.687528;0.691493;0.690762;0.687363;0.682768;0.687251;0.681189;0.679920;0.673959;0.671670;0.678115;0.672808;0.668599;0.670966;0.668561;0.666924;0.666601;0.664085;0.661023;0.661683;0.660844;0.657115;0.658740;0.659417;0.655193;0.654542;0.657247;0.657376;0.656584;0.658831;0.658796;0.654177;0.658820;0.659830;0.657079;0.656740;0.660537;0.658910;0.659680;0.663557;0.656613;0.660115;0.657731;0.658502;0.662545;0.658885;0.659283;0.659835;0.659942;0.662848;0.664983;0.669562;0.660605;0.665328;0.664212;0.663439;0.667018;0.664306;0.669026;0.666846;0.665381;0.670449;0.671230;0.671398;0.670565;0.670920;0.670071;0.669972;0.675615;0.670969;0.672524;0.672781;0.671935;0.670077;0.670437;0.671127;0.667415;0.666085;0.673755;0.664368;0.669855;0.664746;0.665893;0.671347;0.669147;0.666803;0.661560;0.658387;0.660449;0.656486;0.658005;0.656297;0.656379;0.657102;0.650805;0.653370;0.648447;0.649788;0.643443;0.638775;0.640754;0.637069;0.629472;0.629807;0.624333;0.629518;0.620263;0.619577;0.615681;0.610165;0.600848;0.604750;0.599833;0.590593;0.591351;0.590580;0.588479;0.583946;0.579841;0.571959;0.570344;0.567842;0.566185;0.564257;0.559669;0.561355;0.554050;0.553456;0.548246;0.543300;0.545840;0.541086;0.540990;0.535681;0.532335
0.562426;0.560705;0.568418;0.573207;0.573936;0.577059;0.579217;0.592076;0.592544;0.600417;0.604848;0.609588;0.615187;0.618358;0.620565;0.626221;0.631002;0.640009;0.645361;0.650073;0.655164;0.661351;0.666674;0.670690;0.669660;0.676508;0.683808;0.682134;0.686024;0.690387;0.695795;0.699203;0.703117;0.702314;0.704264;0.712417;0.707922;0.712195;0.713864;0.714735;0.707952;0.712361;0.713879;0.708448;0.713310;0.702961;0.710628;0.708553;0.700655;0.699693;0.698068;0.691216;0.691376;0.690400;0.684406;0.681140;0.676523;0.672854;0.667534;0.661801;0.654743;0.650083;0.644863;0.649025;0.639357;0.632039;0.628898;0.624737;0.620954;0.611189;0.608286;0.605110;0.600411;0.595729;0.592986;0.586030;0.583237;0.576997;0.575609;0.575466;0.568111;0.562150;0.560016;0.554645;0.560010;0.557087;0.549602;0.547848;0.550795;0.544408;0.542464;0.540265;0.540204;0.539356;0.538178;0.535809;0.539680;0.534867;0.535746;0.536607;0.540508;0.538409;0.540767;0.539275;0.538835;0.540090;0.544223;0.543049;0.544208;0.546347;0.553450;0.558203;0.557165;0.557864;0.563337;0.565921;0.572038;0.575204;0.585254;0.582749;0.583057;0.593717;0.599154;0.602941;0.604453;0.612632;0.623789;0.629120;0.630817;0.636420;0.638263;0.649280;0.653469;0.664529;0.669523;0.672711;0.677585;0.686525;0.693815;0.699023;0.704143;0.712370;0.719980;0.720507;0.725407;0.730757;0.740480;0.741350;0.745734;0.749437;0.755136;0.757210;0.763299;0.766357;0.765350;0.763616;0.772616;0.770347;0.772404;0.769482;0.770833;0.769869;0.770568;0.771261;0.767684;0.762641;0.755212;0.754882;0.752936;0.746094;0.745045;0.740426;0.730718;0.729662;0.722483;0.718109;0.711082;0.706074;0.702469;0.695779;0.688283;0.677046;0.682709;0.668483;0.659305;0.655986;0.647385;0.642692;0.640008;0.627312;0.623220;0.615450;0.610352;0.605085;0.596761;0.589475;0.586259;0.582913;0.576769;0.570711
0.552475;0.555567;0.559157;0.562273;0.566315;0.568391;0.573132;0.580488;0.583462;0.586144;0.592994;0.599462;0.607685;0.613231;0.615971;0.618492;0.623330;0.627411;0.634339;0.641378;0.643109;0.653665;0.660441;0.664036;0.666155;0.675249;0.678440;0.687609;0.690203;0.694531;0.703198;0.704264;0.717915;0.719402;0.726660;0.731698;0.734111;0.742365;0.744689;0.753390;0.757743;0.755263;0.765426;0.767998;0.772810;0.774337;0.780811;0.789559;0.792981;0.786152;0.797908;0.796989;0.801017;0.803566;0.809645;0.807071;0.812586;0.818177;0.817601;0.818616;0.817116;0.821157;0.826357;0.827389;0.824811;0.829717;0.830438;0.828408;0.829171;0.830320;0.826733;0.829520;0.821797;0.827969;0.826104;0.821653;0.823370;0.817227;0.813140;0.811822;0.805548;0.806309;0.802667;0.800319;0.794051;0.792099;0.787875;0.778778;0.773981;0.770420;0.764766;0.756707;0.756399;0.746790;0.736314;0.733472;0.726263;0.720071;0.712291;0.705329;0.704654;0.693106;0.690821;0.683783;0.676375;0.669985;0.661934;0.659831;0.647398;0.641931;0.638017;0.628745;0.624598;0.619617;0.622121;0.613931;0.603745;0.600493;0.594675;0.597526;0.592063;0.588311;0.586152;0.581771;0.576510;0.579949;0.572137;0.573427;0.570585;0.573101;0.564026;0.565387;0.569080;0.565506;0.559941;0.559513;0.562936;0.560497;0.557396;0.562037;0.559358;0.563010;0.562259;0.556929;0.564337;0.567724;0.560438;0.563246;0.560962;0.562781;0.561738;0.562381;0.565587;0.566850;0.567700;0.565780;0.566082;0.567162;0.561609;0.565172;0.561018;0.562344;0.565161;0.567081;0.560411;0.559196;0.562419;0.559867;0.555303;0.557490;0.553662;0.554635;0.554845;0.551709;0.550820;0.549923;0.546662;0.545336;0.548875;0.543596;0.546540;0.542871;0.542644;0.545929;0.533623;0.536110;0.534867;0.534724;0.530784;0.530775;0.526548;0.531511;0.527995;0.524411;0.524877;0.524990;0.524532;0.521372;0.520833;0.519056
0.551089;0.558232;0.562142;0.561852;0.561352;0.569636;0.574212;0.576670;0.581089;0.581504;0.590209;0.593705;0.602015;0.599952;0.609166;0.616567;0.620931;0.621538;0.628921;0.634799;0.638322;0.640897;0.646510;0.655840;0.659735;0.664825;0.674186;0.680666;0.674721;0.680765;0.693253;0.694379;0.698495;0.701741;0.702782;0.714516;0.710964;0.721853;0.721384;0.724812;0.729367;0.734456;0.735791;0.740165;0.749367;0.744198;0.746892;0.750898;0.756312;0.760263;0.760213;0.760977;0.764026;0.766248;0.755674;0.764553;0.767764;0.771513;0.769579;0.771436;0.773526;0.772147;0.773601;0.774405;0.771100;0.777002;0.779014;0.775030;0.778918;0.778340;0.773897;0.774503;0.772633;0.771424;0.773373;0.773932;0.767635;0.765479;0.765617;0.765500;0.764737;0.760159;0.761089;0.759387;0.759668;0.756154;0.750580;0.750143;0.745518;0.741558;0.742800;0.737588;0.733173;0.731662;0.732324;0.723702;0.723904;0.717912;0.717166;0.712834;0.712405;0.703596;0.703576;0.700745;0.695976;0.691391;0.685886;0.687267;0.676310;0.677722;0.674721;0.669201;0.664786;0.663808;0.663833;0.657647;0.660892;0.655594;0.650582;0.647152;0.646273;0.638223;0.635599;0.631936;0.628806;0.633350;0.626991;0.628402;0.622094;0.620765;0.626417;0.618562;0.619933;0.612944;0.614844;0.610394;0.604699;0.604785;0.604557;0.598705;0.598396;0.601801;0.595330;0.593754;0.595683;0.588843;0.592231;0.588534;0.591857;0.589482;0.584387;0.579873;0.578183;0.581479;0.580628;0.576334;0.575133;0.573522;0.569507;0.567032;0.568502;0.565635;0.566757;0.565412;0.558104;0.559551;0.558670;0.558247;0.557888;0.553464;0.554100;0.546006;0.546600;0.548593;0.544892;0.544432;0.543402;0.536966;0.539348;0.536338;0.532527;0.527032;0.535185;0.527225;0.533043;0.528429;0.524070;0.525511;0.522413;0.522905;0.523635;0.516569;0.514185;0.516732;0.511185;0.514641;0.509226;0.511571;0.510039;0.509027
0.548941;0.553300;0.559774;0.562109;0.569749;0.574278;0.577303;0.578932;0.585253;0.590005;0.594574;0.605539;0.605390;0.613736;0.618857;0.622641;0.627927;0.631086;0.635696;0.642656;0.648878;0.650509;0.654700;0.662173;0.666458;0.675956;0.677769;0.681856;0.684535;0.693810;0.697062;0.701958;0.706156;0.707569;0.714516;0.715277;0.718411;0.721714;0.723742;0.725459;0.727393;0.733962;0.730319;0.737037;0.737098;0.738516;0.738602;0.739263;0.739706;0.738367;0.740730;0.740715;0.739211;0.738283;0.742677;0.738933;0.738623;0.737732;0.734981;0.733513;0.733332;0.730054;0.724673;0.728306;0.723473;0.725226;0.720031;0.718151;0.712313;0.710426;0.712215;0.710811;0.703595;0.705695;0.707587;0.700445;0.694346;0.693504;0.690456;0.682728;0.677724;0.681517;0.680139;0.676687;0.674046;0.667763;0.668516;0.658200;0.662739;0.658330;0.651685;0.649402;0.649486;0.638432;0.640300;0.637055;0.635332;0.630926;0.629319;0.629467;0.621283;0.617481;0.616888;0.614182;0.616444;0.610459;0.608454;0.606373;0.603701;0.601646;0.604464;0.599050;0.596940;0.595873;0.595793;0.598154;0.601082;0.596364;0.596545;0.597217;0.594914;0.602727;0.597398;0.598787;0.596631;0.609783;0.605380;0.603906;0.606170;0.613907;0.609592;0.610899;0.616319;0.615393;0.618177;0.625869;0.624699;0.629764;0.629631;0.634033;0.638638;0.643491;0.638253;0.642933;0.643108;0.650184;0.651363;0.647417;0.652642;0.653959;0.654795;0.664946;0.659502;0.662761;0.664988;0.662925;0.662191;0.664275;0.661324;0.666434;0.659628;0.661750;0.664945;0.661899;0.661181;0.652191;0.655285;0.650113;0.647252;0.643335;0.644824;0.639195;0.639422;0.638710;0.630069;0.625845;0.627396;0.626448;0.614839;0.612979;0.609667;0.604409;0.595744;0.591875;0.594835;0.589953;0.582218;0.579097;0.580838;0.572955;0.568979;0.563210;0.559723;0.565707;0.555252;0.550191;0.548132;0.548338;0.544902;0.535930
0.563474;0.571708;0.575010;0.575543;0.593164;0.589699;0.594556;0.600460;0.605022;0.609453;0.618013;0.624844;0.625816;0.634366;0.632758;0.641366;0.650752;0.654921;0.657958;0.664997;0.670725;0.678234;0.685576;0.691547;0.694603;0.693389;0.698893;0.703428;0.716077;0.711255;0.721367;0.721739;0.725567;0.729187;0.737148;0.734156;0.734834;0.737205;0.737693;0.740589;0.737172;0.736691;0.740547;0.736594;0.740151;0.737611;0.736222;0.737032;0.730531;0.726170;0.727719;0.724667;0.723470;0.713352;0.706386;0.707235;0.700286;0.696590;0.695268;0.688160;0.683270;0.677925;0.676465;0.669049;0.662529;0.652872;0.651223;0.645138;0.641168;0.635186;0.634008;0.630096;0.622557;0.613389;0.616743;0.607899;0.603719;0.601782;0.597390;0.585725;0.587478;0.580692;0.579143;0.579159;0.570057;0.571656;0.568374;0.565541;0.567310;0.554195;0.560175;0.554083;0.551993;0.552118;0.549325;0.546173;0.552039;0.550634;0.550946;0.545093;0.542232;0.545920;0.547895;0.553080;0.548630;0.551272;0.546319;0.552693;0.554580;0.554207;0.557588;0.561229;0.564210;0.560640;0.567493;0.568434;0.571005;0.576971;0.576448;0.583437;0.587366;0.586796;0.599838;0.601106;0.603014;0.606824;0.607493;0.611466;0.621638;0.622459;0.630071;0.632867;0.642761;0.642482;0.647379;0.653357;0.665318;0.665380;0.669469;0.678582;0.681575;0.690632;0.687881;0.697765;0.701921;0.705274;0.706737;0.708356;0.714761;0.716044;0.722966;0.723533;0.728151;0.725269;0.730853;0.731746;0.730488;0.736273;0.739856;0.736680;0.732087;0.730128;0.732930;0.726769;0.728154;0.727782;0.722271;0.720464;0.718481;0.714156;0.709697;0.706861;0.702330;0.699531;0.690506;0.689106;0.682498;0.679780;0.678178;0.664422;0.662730;0.656858;0.655351;0.643262;0.640009;0.638715;0.627912;0.618876;0.617579;0.611942;0.603733;0.601852;0.597883;0.593167;0.587820;0.582520;0.575281;0.568163;0.563775;0.559458
0.514310;0.516020;0.520288;0.518884;0.517593;0.524087;0.522880;0.524801;0.527813;0.527041;0.528178;0.532630;0.532810;0.536626;0.532149;0.536110;0.536052;0.538739;0.538928;0.539145;0.541387;0.541471;0.547615;0.542775;0.547128;0.554216;0.550483;0.553563;0.550532;0.555062;0.552672;0.554836;0.556662;0.552175;0.557379;0.553809;0.557325;0.560619;0.556321;0.556681;0.566280;0.557767;0.557728;0.556710;0.561440;0.558916;0.556325;0.554744;0.560144;0.556406;0.554498;0.557041;0.553563;0.552141;0.555142;0.554589;0.552664;0.553812;0.553605;0.552126;0.545391;0.549836;0.546708;0.543203;0.545143;0.544797;0.538324;0.541485;0.537622;0.533597;0.538080;0.537924;0.534873;0.532011;0.538336;0.536564;0.536199;0.531884;0.537704;0.539325;0.537925;0.539939;0.539450;0.537716;0.536009;0.541741;0.540168;0.542562;0.545345;0.541185;0.542498;0.548087;0.548162;0.551259;0.554705;0.558123;0.557722;0.562647;0.562239;0.564709;0.566992;0.572937;0.577472;0.579249;0.580257;0.587525;0.593758;0.590399;0.596804;0.601821;0.603968;0.613120;0.619078;0.618681;0.628831;0.636712;0.641085;0.646221;0.652698;0.655841;0.664494;0.672306;0.678785;0.680843;0.692316;0.704541;0.711566;0.711787;0.722184;0.727817;0.743912;0.750319;0.754427;0.761383;0.768035;0.779067;0.786394;0.789598;0.799491;0.811174;0.816746;0.827243;0.834227;0.840707;0.845678;0.847409;0.860413;0.864243;0.871129;0.871071;0.875718;0.880523;0.883643;0.885125;0.883303;0.893499;0.891042;0.890424;0.895714;0.891950;0.888032;0.890374;0.886111;0.880946;0.881061;0.872361;0.872191;0.868999;0.856970;0.858305;0.845687;0.839506;0.832746;0.825325;0.814736;0.804882;0.800175;0.795869;0.784829;0.774382;0.765933;0.757440;0.749107;0.735221;0.727727;0.720282;0.707771;0.699034;0.686732;0.680120;0.672733;0.666278;0.653519;0.643875;0.640233;0.631830;0.625008;0.615155;0.608347;0.606238
0.505799;0.508061;0.515184;0.516275;0.514022;0.515568;0.515361;0.520027;0.513305;0.522112;0.521755;0.524945;0.522099;0.527502;0.522497;0.527798;0.532823;0.532114;0.538294;0.536324;0.539319;0.543235;0.542979;0.544697;0.545952;0.550288;0.556356;0.555193;0.561936;0.571146;0.572776;0.575459;0.576060;0.577008;0.579904;0.591058;0.590206;0.594714;0.599519;0.611458;0.609934;0.614950;0.623881;0.626359;0.629548;0.638964;0.645002;0.651352;0.651649;0.664279;0.670011;0.673982;0.683432;0.685432;0.697904;0.703199;0.712032;0.715785;0.725027;0.730541;0.734689;0.739004;0.746526;0.754107;0.757579;0.765909;0.771529;0.776214;0.779292;0.790289;0.789975;0.797898;0.803907;0.806289;0.811481;0.808616;0.815066;0.816041;0.822101;0.823493;0.823243;0.829471;0.831301;0.823208;0.829144;0.827960;0.820166;0.825159;0.829666;0.826313;0.820908;0.824104;0.821278;0.824291;0.808496;0.810756;0.810545;0.809299;0.798081;0.793159;0.797284;0.793531;0.784121;0.785240;0.783018;0.777627;0.772933;0.770630;0.762176;0.762021;0.757981;0.755606;0.750275;0.741868;0.740012;0.733895;0.731393;0.728163;0.723453;0.719559;0.717547;0.712862;0.711433;0.702782;0.701568;0.698132;0.694918;0.695862;0.685519;0.685941;0.678078;0.678591;0.678632;0.670813;0.665325;0.669335;0.655878;0.661123;0.660076;0.652213;0.651545;0.649651;0.650473;0.642333;0.637974;0.635979;0.639788;0.636031;0.634362;0.628017;0.623146;0.621214;0.621142;0.617265;0.613140;0.612563;0.608113;0.601612;0.605842;0.602028;0.604709;0.599350;0.598192;0.594696;0.589160;0.590088;0.589363;0.584223;0.586406;0.580478;0.576105;0.571108;0.568544;0.572905;0.567975;0.562430;0.564542;0.558175;0.552828;0.555335;0.551155;0.552498;0.547353;0.547149;0.542678;0.540563;0.542034;0.542730;0.541123;0.536244;0.536847;0.532274;0.534346;0.528489;0.527514;0.528195;0.520021;0.520849;0.524961;0.517671
0.564769;0.566578;0.574614;0.580379;0.587176;0.589521;0.594470;0.599763;0.607143;0.611219;0.615947;0.625497;0.628865;0.634075;0.640866;0.648377;0.650008;0.657399;0.666545;0.674941;0.677090;0.683506;0.686444;0.689078;0.700536;0.709469;0.713607;0.716223;0.722602;0.725027;0.728569;0.734146;0.738722;0.738361;0.747007;0.746114;0.752889;0.754803;0.758926;0.760866;0.759882;0.762558;0.764851;0.768542;0.768442;0.763104;0.766422;0.766711;0.762908;0.768817;0.766592;0.761172;0.756397;0.764008;0.759124;0.755216;0.757279;0.756780;0.750141;0.751303;0.747059;0.740592;0.740930;0.736923;0.736752;0.734121;0.726804;0.727495;0.725087;0.723175;0.720786;0.718716;0.715578;0.710646;0.708817;0.711933;0.703680;0.704265;0.703875;0.696875;0.700496;0.697089;0.694950;0.694688;0.696432;0.691684;0.691882;0.689921;0.694317;0.693706;0.690907;0.692530;0.695823;0.694839;0.696093;0.692703;0.689767;0.693495;0.696776;0.702392;0.696733;0.699200;0.698982;0.691409;0.696053;0.696403;0.700163;0.692139;0.692215;0.695262;0.695118;0.696385;0.696604;0.692624;0.698484;0.693062;0.693399;0.691738;0.686792;0.694842;0.691878;0.685243;0.687888;0.682120;0.680869;0.678412;0.680151;0.671372;0.670228;0.667200;0.664313;0.659160;0.659335;0.655753;0.652992;0.647813;0.648351;0.646852;0.639720;0.632456;0.638090;0.630329;0.626518;0.627067;0.624206;0.612672;0.613575;0.611895;0.603588;0.603804;0.597468;0.600152;0.588149;0.589699;0.587461;0.580817;0.579407;0.580084;0.570966;0.573742;0.566139;0.565383;0.563552;0.564203;0.561883;0.553796;0.557828;0.556125;0.552942;0.545260;0.551418;0.545102;0.541728;0.541318;0.537783;0.535241;0.537639;0.527476;0.534786;0.529273;0.538652;0.528029;0.529226;0.523926;0.521588;0.527340;0.525617;0.525949;0.527411;0.522201;0.524460;0.514650;0.515750;0.518288;0.518037;0.517163;0.516235;0.516384;0.510946;0.512146
0.574606;0.583849;0.586063;0.592576;0.591442;0.599294;0.606861;0.614254;0.620423;0.623563;0.632345;0.645006;0.642877;0.649514;0.661586;0.663129;0.670547;0.676725;0.683160;0.692388;0.695819;0.696411;0.710817;0.717471;0.723413;0.730218;0.735430;0.739903;0.747365;0.750010;0.760802;0.757262;0.764783;0.768258;0.775982;0.776723;0.774438;0.779883;0.776576;0.784515;0.784929;0.782694;0.781967;0.787886;0.784618;0.783300;0.782399;0.781260;0.778543;0.773848;0.767765;0.769035;0.765400;0.767481;0.760523;0.759378;0.747612;0.750094;0.742018;0.742601;0.732523;0.731947;0.724221;0.729581;0.719150;0.713987;0.708835;0.701818;0.696800;0.695896;0.691000;0.689612;0.683850;0.675770;0.675474;0.673198;0.669400;0.667131;0.664913;0.658923;0.661507;0.657499;0.655497;0.653947;0.647344;0.651489;0.645784;0.645711;0.639865;0.643727;0.642994;0.645286;0.645145;0.642258;0.647042;0.647500;0.643852;0.647967;0.649820;0.644280;0.642168;0.644868;0.647758;0.648042;0.649957;0.656291;0.654911;0.650115;0.655464;0.657677;0.656494;0.656136;0.657172;0.655915;0.651474;0.653216;0.657642;0.659464;0.658942;0.657289;0.659418;0.656740;0.655836;0.660927;0.654375;0.654308;0.656069;0.656260;0.649610;0.652202;0.649500;0.650863;0.644233;0.644997;0.639996;0.642528;0.642119;0.641571;0.632339;0.629802;0.630391;0.627678;0.627160;0.621394;0.622629;0.614625;0.614028;0.616284;0.609991;0.605534;0.605310;0.603055;0.597322;0.598610;0.595671;0.592906;0.591700;0.584452;0.584184;0.583556;0.578246;0.572714;0.573034;0.571647;0.565729;0.570325;0.567012;0.560895;0.561546;0.556148;0.554958;0.551898;0.551805;0.550301;0.545830;0.545964;0.547173;0.545112;0.540017;0.536548;0.536523;0.532083;0.533249;0.535954;0.529177;0.532163;0.528700;0.524360;0.523191;0.520691;0.521141;0.520673;0.515662;0.514003;0.511308;0.515478;0.508895;0.509805;0.515151;0.508117
0.508887;0.509964;0.509408;0.510733;0.509335;0.509721;0.512188;0.515440;0.518031;0.521145;0.510743;0.516596;0.516070;0.523138;0.521026;0.520671;0.524435;0.524547;0.523538;0.523667;0.526591;0.528838;0.524808;0.528584;0.539490;0.535815;0.531119;0.533925;0.539269;0.535464;0.540412;0.542926;0.540875;0.542667;0.544030;0.547161;0.549519;0.550613;0.560352;0.554354;0.559448;0.561382;0.563631;0.563156;0.570669;0.572607;0.576892;0.571459;0.577673;0.580236;0.578810;0.581743;0.582706;0.589906;0.590452;0.593424;0.593621;0.601577;0.601065;0.606385;0.602783;0.609582;0.610549;0.614342;0.620486;0.622162;0.622982;0.624759;0.636388;0.637173;0.640327;0.636465;0.646788;0.649580;0.650463;0.657272;0.658578;0.665346;0.671012;0.668491;0.676305;0.674821;0.679913;0.683174;0.686276;0.691570;0.696181;0.696925;0.703427;0.702475;0.710097;0.717418;0.718150;0.725015;0.727951;0.727452;0.734961;0.737934;0.740772;0.742063;0.747666;0.751648;0.758019;0.758626;0.765935;0.765209;0.765620;0.765958;0.771035;0.778502;0.779584;0.784506;0.785331;0.784907;0.787758;0.788624;0.785383;0.790463;0.796225;0.790822;0.796511;0.793949;0.794879;0.796026;0.798173;0.792831;0.793337;0.794224;0.786481;0.794162;0.790547;0.791784;0.787776;0.785013;0.779719;0.778069;0.781285;0.774363;0.776246;0.772626;0.771797;0.765506;0.760926;0.759058;0.756891;0.750944;0.752964;0.746402;0.746424;0.743466;0.737606;0.734077;0.731289;0.723021;0.720753;0.722126;0.712176;0.712818;0.705379;0.701791;0.698062;0.693511;0.687737;0.683811;0.675628;0.674851;0.674778;0.669513;0.661664;0.660669;0.652780;0.645237;0.645589;0.643208;0.632934;0.630683;0.629203;0.624833;0.617459;0.612036;0.607539;0.602494;0.595682;0.591870;0.590926;0.584989;0.579973;0.580878;0.571374;0.571293;0.566090;0.560290;0.555433;0.557353;0.557578;0.545728;0.544842;0.538968;0.540526;0.538168
0.510684;0.514365;0.516845;0.515866;0.514998;0.514909;0.519463;0.516384;0.520922;0.523963;0.524204;0.527260;0.528943;0.528504;0.533220;0.531003;0.538475;0.538815;0.543198;0.538511;0.547283;0.549490;0.546934;0.550597;0.560430;0.560826;0.566640;0.568963;0.573161;0.573792;0.580757;0.582399;0.586680;0.592137;0.594103;0.602550;0.604359;0.613623;0.607602;0.621844;0.628759;0.632105;0.640839;0.644397;0.655221;0.656585;0.660395;0.666177;0.676069;0.686811;0.692743;0.696051;0.701664;0.713278;0.717734;0.725776;0.735159;0.743048;0.749108;0.754461;0.762049;0.765978;0.779313;0.783684;0.791111;0.791929;0.799089;0.804268;0.804575;0.815842;0.814923;0.821935;0.821883;0.826832;0.830515;0.834629;0.832246;0.836572;0.835228;0.840705;0.847395;0.837947;0.842280;0.836606;0.833899;0.840361;0.830983;0.832359;0.829231;0.830125;0.822299;0.820024;0.810897;0.809691;0.797971;0.802271;0.794316;0.789118;0.783026;0.779663;0.775562;0.765336;0.761728;0.753245;0.750245;0.743154;0.739298;0.730539;0.725413;0.719935;0.714064;0.713500;0.706939;0.697117;0.689778;0.687258;0.681719;0.676492;0.668661;0.664938;0.662531;0.659546;0.652580;0.659058;0.650327;0.644323;0.646837;0.642060;0.639950;0.641138;0.632762;0.629521;0.630917;0.629400;0.628562;0.625556;0.628069;0.628773;0.623273;0.618150;0.620501;0.619577;0.626809;0.620176;0.616907;0.617517;0.616305;0.613528;0.614889;0.619753;0.613175;0.618324;0.616870;0.616134;0.611181;0.611130;0.614254;0.614064;0.609899;0.607636;0.610032;0.607251;0.603461;0.601554;0.607421;0.600290;0.595475;0.595344;0.596542;0.598166;0.592487;0.587148;0.585845;0.589374;0.580804;0.581284;0.576439;0.578152;0.571502;0.561614;0.569270;0.561803;0.559384;0.556854;0.557539;0.560579;0.553072;0.546010;0.548891;0.544782;0.540432;0.539734;0.535646;0.533749;0.527721;0.533399;0.532961;0.530347;0.524825;0.523562
0.547997;0.557637;0.557596;0.556640;0.564171;0.570359;0.569111;0.570240;0.577472;0.584328;0.584497;0.590639;0.594685;0.596880;0.606256;0.608680;0.612414;0.614779;0.620934;0.625437;0.629207;0.629765;0.636511;0.645368;0.644767;0.647265;0.653425;0.657188;0.658317;0.663892;0.669801;0.673054;0.672378;0.678848;0.684526;0.685404;0.687751;0.691033;0.688513;0.694467;0.694413;0.697082;0.696308;0.698924;0.700787;0.700714;0.698601;0.702271;0.698244;0.695951;0.699265;0.697293;0.695318;0.697967;0.693534;0.690744;0.689434;0.687822;0.688563;0.689194;0.683620;0.680416;0.680345;0.677728;0.680324;0.673695;0.672309;0.666550;0.666762;0.662179;0.659923;0.655350;0.654757;0.653473;0.654051;0.646137;0.636319;0.640562;0.637047;0.637387;0.635247;0.631977;0.624453;0.623802;0.617831;0.621431;0.615858;0.618123;0.616836;0.611801;0.615794;0.609387;0.610113;0.602088;0.604902;0.603389;0.602250;0.598063;0.598058;0.595327;0.596135;0.588596;0.595604;0.592569;0.590155;0.588360;0.587148;0.593737;0.588381;0.588401;0.591105;0.594297;0.592689;0.592870;0.597594;0.597949;0.601733;0.598435;0.601965;0.605270;0.601349;0.613985;0.609392;0.612340;0.616447;0.620431;0.628678;0.629181;0.638027;0.634810;0.640090;0.645760;0.649648;0.649961;0.661171;0.664179;0.666811;0.668420;0.674064;0.680873;0.683416;0.691614;0.690194;0.694473;0.705749;0.702497;0.704196;0.712304;0.714542;0.715652;0.714401;0.722469;0.726365;0.726977;0.728939;0.731586;0.730920;0.726611;0.727244;0.725928;0.725354;0.728624;0.729825;0.724556;0.719151;0.723658;0.720450;0.716810;0.713812;0.712225;0.708542;0.699070;0.695640;0.691681;0.685926;0.685101;0.678910;0.673847;0.664648;0.664075;0.656473;0.652149;0.643202;0.639785;0.633488;0.630649;0.621239;0.623462;0.611497;0.606164;0.600360;0.594456;0.590800;0.588954;0.578486;0.575802;0.572881;0.564928;0.562392;0.556267
0.534964;0.537977;0.543789;0.538146;0.541549;0.549550;0.553021;0.554379;0.558522;0.560739;0.565203;0.565594;0.567881;0.574115;0.577625;0.578715;0.585092;0.587009;0.589851;0.598460;0.603435;0.605819;0.610159;0.611312;0.618638;0.621991;0.626566;0.626735;0.631747;0.638342;0.643860;0.650643;0.648737;0.658591;0.659698;0.665699;0.669379;0.670163;0.679739;0.685000;0.690107;0.696227;0.691998;0.706911;0.710674;0.711447;0.711570;0.714585;0.720402;0.727177;0.729115;0.735489;0.740162;0.743073;0.745579;0.754442;0.750835;0.754093;0.759497;0.762963;0.761223;0.769510;0.774435;0.781996;0.778172;0.778486;0.783208;0.789333;0.782353;0.787685;0.785919;0.789338;0.789563;0.791495;0.794477;0.791192;0.787370;0.791604;0.788738;0.787305;0.787936;0.784665;0.785927;0.783372;0.780104;0.776440;0.774387;0.771628;0.771170;0.764202;0.758449;0.758819;0.748580;0.748249;0.742103;0.737280;0.736916;0.726878;0.726316;0.719504;0.713892;0.712817;0.703542;0.695814;0.692804;0.689677;0.682483;0.679178;0.676440;0.670803;0.664048;0.665933;0.654918;0.653365;0.652358;0.648715;0.645036;0.641185;0.633884;0.633374;0.632885;0.629692;0.624164;0.625502;0.621288;0.624840;0.623608;0.619561;0.615233;0.610463;0.619478;0.611470;0.612719;0.614778;0.615530;0.608872;0.606631;0.613067;0.614098;0.609468;0.610255;0.614220;0.609183;0.613085;0.611692;0.611115;0.614914;0.615702;0.608705;0.614738;0.607431;0.610922;0.610987;0.610402;0.608829;0.606554;0.610776;0.610932;0.608482;0.608083;0.604409;0.608241;0.609215;0.604583;0.598752;0.594937;0.593018;0.596790;0.589119;0.589471;0.588593;0.588847;0.589948;0.587904;0.580036;0.579656;0.575192;0.576235;0.568680;0.570489;0.569957;0.565427;0.562705;0.558428;0.557665;0.555342;0.550496;0.548094;0.547045;0.545576;0.540610;0.544711;0.536820;0.533615;0.530157;0.529490;0.530083;0.528413;0.526859;0.527615
0.531596;0.529396;0.528675;0.532734;0.532364;0.532090;0.539738;0.541983;0.544674;0.542170;0.545913;0.551298;0.557524;0.554172;0.560324;0.559147;0.563073;0.565943;0.569577;0.566142;0.574194;0.578140;0.582143;0.579206;0.585502;0.583405;0.587890;0.589848;0.594955;0.597046;0.594978;0.599295;0.607007;0.600846;0.600495;0.602454;0.606037;0.604905;0.606871;0.611396;0.609114;0.606213;0.606614;0.609304;0.605263;0.613656;0.609017;0.611039;0.606769;0.604648;0.613609;0.606624;0.612300;0.605267;0.605277;0.602588;0.602482;0.598474;0.603425;0.598922;0.601839;0.599574;0.593572;0.600793;0.597386;0.593406;0.594799;0.591959;0.591807;0.587895;0.588472;0.586509;0.587180;0.585048;0.585907;0.582481;0.578733;0.585619;0.578238;0.581095;0.585804;0.583201;0.583718;0.586159;0.582699;0.581695;0.584522;0.583055;0.585657;0.585486;0.586357;0.588768;0.589233;0.588785;0.593492;0.592153;0.595671;0.596633;0.593050;0.596170;0.604420;0.602833;0.607639;0.605687;0.609061;0.613705;0.613848;0.620170;0.620742;0.625767;0.628054;0.629724;0.635297;0.639655;0.640303;0.638876;0.648318;0.656254;0.655929;0.664528;0.664275;0.669887;0.678610;0.679895;0.685074;0.691660;0.689277;0.700062;0.705150;0.709234;0.715566;0.716586;0.725738;0.731945;0.737848;0.746959;0.753849;0.753043;0.760254;0.761731;0.770708;0.773035;0.777728;0.777711;0.785863;0.786864;0.794597;0.794710;0.797132;0.800141;0.803381;0.805758;0.804169;0.813367;0.814188;0.810878;0.809622;0.807835;0.807116;0.813464;0.815765;0.803844;0.805875;0.797621;0.793883;0.793321;0.785014;0.789495;0.782274;0.779422;0.768562;0.763515;0.758541;0.749779;0.743232;0.740414;0.732635;0.723578;0.719254;0.708248;0.703677;0.700516;0.688892;0.680535;0.673790;0.674198;0.659524;0.652474;0.650115;0.640551;0.630596;0.622869;0.618509;0.613268;0.608653;0.601685;0.591653;0.583840;0.582577;0.576355
0.543246;0.543006;0.550687;0.555708;0.557904;0.560672;0.563197;0.564493;0.569697;0.573356;0.575206;0.587660;0.583683;0.588790;0.590223;0.595208;0.602121;0.603778;0.607951;0.613167;0.614262;0.617482;0.625341;0.630667;0.631563;0.636826;0.640287;0.645225;0.648567;0.650846;0.654075;0.655283;0.662013;0.660055;0.666298;0.665149;0.665298;0.671023;0.676818;0.681270;0.677817;0.683211;0.684147;0.681099;0.683264;0.680736;0.687626;0.683488;0.685852;0.684616;0.683600;0.686341;0.682379;0.679009;0.683319;0.677715;0.678684;0.676466;0.676163;0.677598;0.672731;0.672152;0.673661;0.668438;0.669780;0.662814;0.664463;0.661280;0.659645;0.660452;0.655130;0.655239;0.653301;0.649505;0.650675;0.646156;0.647833;0.645760;0.636895;0.639336;0.637261;0.633067;0.632331;0.628591;0.629948;0.624373;0.623305;0.621880;0.624055;0.625757;0.618800;0.617901;0.614270;0.612260;0.609302;0.610128;0.616425;0.609853;0.614445;0.609729;0.608463;0.605843;0.609627;0.610365;0.611280;0.610469;0.605605;0.605533;0.606956;0.605532;0.610971;0.608278;0.611044;0.605399;0.610304;0.615219;0.613460;0.617539;0.617213;0.621578;0.623924;0.627244;0.628607;0.632139;0.633065;0.636933;0.644327;0.644244;0.645248;0.650110;0.654987;0.654205;0.660800;0.666718;0.671035;0.669297;0.674555;0.676296;0.684525;0.686918;0.690694;0.691672;0.699216;0.700740;0.701609;0.710590;0.710998;0.713659;0.714826;0.715832;0.720617;0.725572;0.721620;0.727045;0.723680;0.721693;0.725307;0.724139;0.726730;0.725684;0.725724;0.721076;0.717945;0.722644;0.720149;0.717133;0.713349;0.706300;0.706713;0.705077;0.698238;0.694675;0.688440;0.687073;0.679048;0.676274;0.670768;0.667427;0.659389;0.653902;0.649501;0.641589;0.636214;0.633515;0.628640;0.623880;0.616855;0.610798;0.603051;0.600871;0.598775;0.590933;0.579168;0.577680;0.575097;0.571123;0.563983;0.561717;0.553571;0.556072
