1100;1105;1110;1115;1120;1125;1130;1135;1140;1145;1150;1155;1160;1165;1170;1175;1180;1185;1190;1195;1200;1205;1210;1215;1220;1225;1230;1235;1240;1245;1250;1255;1260;1265;1270;1275;1280;1285;1290;1295;1301;1306;1311;1316;1321;1326;1331;1336;1341;1346;1351;1356;1361;1366;1371;1376;1381;1386;1391;1396;1401;1406;1411;1416;1421;1426;1431;1436;1441;1446;1451;1456;1461;1466;1471;1476;1481;1486;1491;1496;1502;1507;1512;1517;1522;1527;1532;1537;1542;1547;1552;1557;1562;1567;1572;1577;1582;1587;1592;1597;1602;1607;1612;1617;1622;1627;1632;1637;1642;1647;1652;1657;1662;1667;1672;1677;1682;1687;1692;1697;1703;1708;1713;1718;1723;1728;1733;1738;1743;1748;1753;1758;1763;1768;1773;1778;1783;1788;1793;1798;1803;1808;1813;1818;1823;1828;1833;1838;1843;1848;1853;1858;1863;1868;1873;1878;1883;1888;1893;1898;1904;1909;1914;1919;1924;1929;1934;1939;1944;1949;1954;1959;1964;1969;1974;1979;1984;1989;1994;1999;2004;2009;2014;2019;2024;2029;2034;2039;2044;2049;2054;2059;2064;2069;2074;2079;2084;2089;2094;2100
0.525319;0.531325;0.526759;0.536463;0.534581;0.533301;0.533731;0.540588;0.542347;0.544910;0.547953;0.550527;0.550980;0.556322;0.561641;0.564007;0.566873;0.566150;0.566777;0.575353;0.573831;0.578080;0.577037;0.579037;0.586291;0.587149;0.590979;0.590699;0.585882;0.595661;0.594889;0.599089;0.597455;0.599945;0.603833;0.604553;0.601889;0.605788;0.607978;0.606702;0.607131;0.606533;0.605407;0.607571;0.609502;0.611169;0.610428;0.611477;0.608775;0.614246;0.611318;0.609482;0.610508;0.609005;0.608985;0.609164;0.609159;0.605273;0.607816;0.608773;0.607441;0.601410;0.607121;0.604580;0.607311;0.609244;0.611511;0.617327;0.615290;0.612175;0.618117;0.619317;0.621995;0.625686;0.626414;0.626280;0.629400;0.636812;0.639762;0.640289;0.644813;0.646978;0.655100;0.663360;0.674130;0.669943;0.675969;0.684462;0.686721;0.699523;0.704643;0.708130;0.718104;0.723502;0.729923;0.738640;0.745565;0.753956;0.758019;0.768048;0.772281;0.784528;0.789329;0.793179;0.800152;0.810343;0.811995;0.819865;0.828100;0.831000;0.833055;0.839829;0.842623;0.848035;0.846998;0.844591;0.856801;0.857050;0.857301;0.860168;0.858884;0.858355;0.854478;0.853986;0.852463;0.850340;0.847623;0.842240;0.843954;0.838794;0.834740;0.825024;0.823081;0.820558;0.817220;0.812529;0.801878;0.792293;0.790543;0.785594;0.775952;0.763674;0.762882;0.752692;0.745496;0.740756;0.729256;0.722889;0.715563;0.706464;0.703509;0.690969;0.688051;0.679458;0.676934;0.664129;0.658449;0.651272;0.649767;0.641036;0.639491;0.628206;0.622520;0.618934;0.613855;0.607368;0.603910;0.599630;0.596267;0.590231;0.582717;0.579930;0.580196;0.575880;0.567990;0.567709;0.566731;0.558441;0.561511;0.555347;0.553793;0.546619;0.542886;0.545436;0.542812;0.541666;0.541210;0.541042;0.532286;0.534068;0.531539;0.529371;0.526490;0.530649;0.522818;0.525602;0.522289;0.523781;0.522846;0.520069
0.571898;0.581240;0.581374;0.588153;0.593843;0.602099;0.606837;0.612065;0.616336;0.622014;0.629721;0.634839;0.644050;0.653998;0.654441;0.660374;0.671470;0.674275;0.678686;0.685658;0.698932;0.698075;0.709771;0.711318;0.721463;0.726633;0.728985;0.736220;0.742973;0.748646;0.752340;0.754372;0.755768;0.766629;0.773518;0.767615;0.778028;0.774888;0.777378;0.779590;0.785802;0.781288;0.785406;0.780100;0.782080;0.784818;0.785279;0.778212;0.779938;0.771602;0.772933;0.770680;0.769125;0.765232;0.764797;0.758879;0.758480;0.754371;0.747753;0.744466;0.738668;0.736124;0.733642;0.724934;0.726358;0.717766;0.715778;0.713436;0.709904;0.701483;0.698714;0.687038;0.690998;0.687476;0.683170;0.678130;0.678385;0.672470;0.665936;0.664599;0.658086;0.659509;0.659979;0.655173;0.652424;0.653731;0.645729;0.645264;0.642574;0.645581;0.643418;0.643435;0.644879;0.641799;0.641058;0.636989;0.638311;0.640051;0.633945;0.641272;0.637344;0.638567;0.636811;0.639677;0.639318;0.636001;0.642171;0.638380;0.641955;0.641289;0.641637;0.644082;0.640122;0.642440;0.638537;0.643938;0.645194;0.644353;0.643256;0.643068;0.641210;0.647637;0.644883;0.642502;0.641849;0.642990;0.639791;0.646318;0.643971;0.641676;0.644469;0.641407;0.642819;0.641765;0.639290;0.638370;0.638109;0.637869;0.637562;0.632647;0.639058;0.631616;0.639601;0.636194;0.633067;0.635665;0.633802;0.629594;0.629194;0.627337;0.628131;0.622942;0.620286;0.622068;0.618465;0.620184;0.616747;0.619193;0.614752;0.613943;0.607682;0.610809;0.605663;0.605648;0.600043;0.596425;0.596147;0.597115;0.595457;0.595164;0.587697;0.586183;0.584694;0.585683;0.576532;0.576739;0.575327;0.572838;0.569003;0.563571;0.565368;0.562173;0.563007;0.558694;0.555502;0.557466;0.551649;0.548277;0.547798;0.540743;0.544207;0.545306;0.542157;0.538480;0.537487;0.533858;0.535058;0.529819;0.536741;0.527041
0.527866;0.527637;0.534023;0.526848;0.536567;0.539043;0.541807;0.548513;0.544379;0.545580;0.547489;0.555988;0.550835;0.557737;0.554856;0.560749;0.568154;0.567941;0.570725;0.574520;0.578149;0.584485;0.583566;0.590900;0.593547;0.597918;0.596875;0.600891;0.606512;0.607858;0.613533;0.619643;0.622397;0.625523;0.633482;0.629626;0.637027;0.645836;0.647365;0.650608;0.654762;0.657206;0.661742;0.665953;0.670885;0.673702;0.675727;0.682397;0.686819;0.688380;0.694402;0.696471;0.703490;0.702569;0.710507;0.709707;0.716231;0.720125;0.722675;0.727312;0.730823;0.733859;0.735067;0.739843;0.737934;0.740215;0.746864;0.747121;0.745435;0.749965;0.753462;0.751966;0.758005;0.756798;0.757343;0.756231;0.759778;0.762455;0.757095;0.754811;0.756669;0.748178;0.753028;0.751305;0.747732;0.744723;0.745152;0.745638;0.743597;0.737243;0.733839;0.731096;0.728627;0.723202;0.722367;0.714741;0.712540;0.711469;0.701953;0.701040;0.694166;0.697326;0.692112;0.682736;0.680715;0.676148;0.675962;0.671111;0.670807;0.660419;0.660579;0.661581;0.658415;0.652376;0.644860;0.648626;0.642640;0.639252;0.640549;0.638839;0.639596;0.640865;0.637347;0.633337;0.635351;0.631544;0.631154;0.636855;0.630130;0.631292;0.636953;0.638065;0.635640;0.635331;0.635698;0.639800;0.641336;0.643368;0.640246;0.648480;0.646764;0.647300;0.644469;0.647965;0.649127;0.653714;0.654230;0.654643;0.653496;0.651922;0.653239;0.658748;0.655151;0.658651;0.658242;0.659095;0.658641;0.657940;0.656277;0.657021;0.659379;0.654487;0.658594;0.653566;0.652743;0.648714;0.645247;0.646069;0.645933;0.635828;0.635725;0.633301;0.633095;0.626358;0.619520;0.619568;0.615237;0.615514;0.611738;0.606791;0.604969;0.604268;0.595598;0.590311;0.589159;0.583713;0.577421;0.579065;0.572421;0.569838;0.561464;0.561277;0.557516;0.555046;0.549094;0.546984;0.546377;0.541020;0.543011;0.534799
0.517356;0.519403;0.523766;0.526940;0.523988;0.527809;0.531745;0.532379;0.530449;0.537656;0.538054;0.543155;0.537833;0.545980;0.548956;0.551606;0.550785;0.557096;0.558474;0.563854;0.559493;0.568487;0.576565;0.575881;0.578309;0.576875;0.580614;0.589285;0.594954;0.598917;0.603584;0.608673;0.611329;0.615964;0.620845;0.627903;0.626041;0.640829;0.645942;0.649230;0.653873;0.665046;0.667141;0.676222;0.677819;0.682959;0.692191;0.699688;0.704424;0.714489;0.721551;0.720633;0.728746;0.734360;0.745786;0.750133;0.761572;0.767327;0.772684;0.778452;0.783244;0.788990;0.798514;0.802296;0.809493;0.811448;0.812676;0.821837;0.827598;0.830435;0.835712;0.838282;0.839281;0.839570;0.844392;0.844895;0.848771;0.849489;0.850055;0.846786;0.846621;0.842006;0.841789;0.842306;0.841369;0.834747;0.833731;0.830230;0.819119;0.816532;0.812636;0.810043;0.800861;0.796071;0.783293;0.781404;0.774627;0.762816;0.759104;0.757861;0.748826;0.741074;0.733253;0.723658;0.718647;0.709919;0.705530;0.693667;0.692286;0.686879;0.676294;0.673843;0.662819;0.661331;0.657299;0.648010;0.641499;0.635071;0.637050;0.629955;0.625823;0.620477;0.622395;0.615878;0.615643;0.610991;0.606289;0.607364;0.608819;0.598446;0.595828;0.601721;0.601994;0.597172;0.600653;0.601702;0.597380;0.604294;0.599707;0.602613;0.605710;0.605399;0.604818;0.611102;0.602489;0.605628;0.606151;0.608417;0.608358;0.609298;0.609900;0.609246;0.607389;0.615335;0.618516;0.610072;0.616100;0.611864;0.613331;0.611585;0.610510;0.609545;0.610975;0.605796;0.609553;0.606323;0.609924;0.608839;0.601316;0.598724;0.603554;0.597687;0.599275;0.595867;0.590343;0.589105;0.586839;0.586999;0.583782;0.580489;0.575754;0.575817;0.571265;0.570361;0.565813;0.563042;0.562316;0.565808;0.556126;0.553420;0.554706;0.546124;0.541481;0.548003;0.545746;0.545049;0.541047;0.536706;0.537915;0.530830
0.516175;0.513890;0.515962;0.522093;0.527949;0.524322;0.527307;0.528504;0.526304;0.527790;0.534574;0.533274;0.538025;0.538707;0.540984;0.544207;0.546348;0.545768;0.551733;0.549147;0.553479;0.560352;0.559797;0.563751;0.563418;0.572097;0.578172;0.573751;0.579335;0.586024;0.584661;0.593577;0.591851;0.599570;0.600777;0.610310;0.611354;0.615340;0.620299;0.624426;0.628475;0.630548;0.640770;0.641650;0.646369;0.654394;0.660484;0.664233;0.669255;0.672361;0.679216;0.688347;0.689529;0.696472;0.705621;0.705764;0.713364;0.721274;0.726569;0.728318;0.736335;0.741500;0.747877;0.750166;0.754038;0.761388;0.764352;0.765930;0.771297;0.777015;0.782498;0.787410;0.787382;0.792364;0.797251;0.797195;0.794749;0.797982;0.795579;0.797648;0.800847;0.806806;0.805712;0.805926;0.805608;0.803192;0.801595;0.803008;0.802699;0.795883;0.799083;0.795927;0.791193;0.791457;0.787816;0.781676;0.780229;0.780732;0.775931;0.774501;0.765006;0.762521;0.763066;0.759814;0.763729;0.751895;0.748073;0.742410;0.743537;0.734585;0.733115;0.729591;0.723742;0.723918;0.718503;0.715005;0.712446;0.708415;0.702221;0.699944;0.694779;0.698619;0.687401;0.685136;0.686210;0.679612;0.680245;0.674115;0.674039;0.670231;0.672278;0.668882;0.662967;0.662199;0.657863;0.653139;0.656418;0.653371;0.646390;0.652305;0.647313;0.645810;0.641702;0.637366;0.638279;0.634871;0.634264;0.632143;0.631094;0.629247;0.626326;0.626527;0.622248;0.621087;0.625614;0.621791;0.616017;0.617369;0.605582;0.611543;0.606057;0.608341;0.607531;0.609166;0.602492;0.598786;0.596632;0.595128;0.591266;0.587689;0.584656;0.580791;0.578650;0.580755;0.575902;0.571878;0.567731;0.570475;0.564511;0.559274;0.556826;0.562965;0.553786;0.556039;0.548106;0.547909;0.545091;0.543254;0.540246;0.542357;0.538702;0.534457;0.534364;0.531984;0.525246;0.522577;0.526847;0.524244;0.519715;0.522256
0.545142;0.552092;0.547883;0.554227;0.558418;0.566003;0.571781;0.566039;0.573977;0.577433;0.582271;0.584886;0.590239;0.593140;0.598922;0.607734;0.605251;0.607280;0.611970;0.624491;0.625432;0.629193;0.633900;0.640611;0.640837;0.652727;0.646651;0.655841;0.661628;0.657858;0.668742;0.671339;0.673728;0.676201;0.679755;0.681275;0.682536;0.695736;0.693149;0.695297;0.694592;0.698790;0.697987;0.703591;0.701484;0.705338;0.705482;0.708412;0.713479;0.709360;0.711924;0.708691;0.713443;0.708330;0.714789;0.713069;0.713298;0.718436;0.714742;0.716504;0.708970;0.708654;0.709892;0.713266;0.715914;0.712235;0.711108;0.713537;0.714487;0.712165;0.708554;0.711726;0.715338;0.707876;0.709558;0.710520;0.713153;0.711057;0.717285;0.713163;0.711831;0.712304;0.715413;0.714284;0.713167;0.719917;0.715008;0.717461;0.719531;0.718386;0.720113;0.718231;0.720662;0.719557;0.725210;0.729613;0.723059;0.727456;0.724859;0.731349;0.726359;0.730127;0.728041;0.733994;0.726989;0.730823;0.737062;0.730967;0.728011;0.730464;0.733724;0.731637;0.730156;0.731197;0.728764;0.726221;0.729701;0.724300;0.726732;0.723976;0.728121;0.716721;0.720559;0.720212;0.712323;0.710881;0.709048;0.704481;0.705084;0.704290;0.695732;0.691969;0.693167;0.686004;0.689576;0.681654;0.679532;0.674154;0.663844;0.666417;0.658898;0.657131;0.652556;0.646990;0.642929;0.641900;0.636812;0.633429;0.625552;0.625773;0.623095;0.615970;0.612816;0.606848;0.607650;0.601642;0.596973;0.593937;0.597258;0.587127;0.584218;0.580571;0.578701;0.574725;0.576738;0.565132;0.570411;0.561813;0.564971;0.558392;0.553939;0.551150;0.550776;0.550070;0.542456;0.542766;0.542542;0.539933;0.538473;0.536067;0.532762;0.530375;0.530118;0.526398;0.528588;0.525284;0.529092;0.520228;0.523286;0.522291;0.518908;0.515021;0.517327;0.513040;0.517024;0.514537;0.509632;0.513046;0.514719;0.506274
0.504332;0.505422;0.504984;0.504688;0.504534;0.505110;0.512498;0.510960;0.505650;0.503953;0.504491;0.509471;0.507698;0.510529;0.510806;0.516864;0.509834;0.516231;0.515333;0.515090;0.518191;0.519218;0.518589;0.522950;0.526773;0.527031;0.530344;0.529752;0.533262;0.532460;0.533265;0.540478;0.541073;0.545688;0.547513;0.550062;0.550216;0.557448;0.557973;0.558541;0.563654;0.566298;0.571785;0.576239;0.577870;0.585928;0.587267;0.589403;0.592752;0.607334;0.604144;0.611578;0.606419;0.617615;0.621911;0.628514;0.635546;0.632412;0.644808;0.641341;0.649011;0.651123;0.661322;0.661455;0.666043;0.669824;0.673915;0.678630;0.682477;0.684578;0.689653;0.685675;0.687742;0.698634;0.695344;0.697501;0.701125;0.702871;0.700517;0.709122;0.701919;0.703974;0.701900;0.701203;0.699980;0.702314;0.703635;0.701115;0.697644;0.696039;0.689147;0.691368;0.689440;0.683994;0.681525;0.684061;0.678269;0.676397;0.671815;0.662015;0.665503;0.664527;0.658891;0.658103;0.658067;0.656516;0.651447;0.653179;0.647280;0.644673;0.645276;0.646549;0.643467;0.640545;0.644744;0.642943;0.643686;0.647121;0.642518;0.645679;0.648736;0.646848;0.648028;0.653851;0.654816;0.662459;0.664098;0.667939;0.668909;0.672438;0.676316;0.686191;0.687237;0.699706;0.698559;0.698878;0.707315;0.710593;0.714956;0.731858;0.725318;0.737307;0.742676;0.746620;0.749974;0.751471;0.760092;0.761424;0.765971;0.773812;0.772664;0.773588;0.778800;0.774336;0.783920;0.793395;0.784237;0.787250;0.790805;0.791108;0.784049;0.779473;0.783314;0.777543;0.779314;0.771733;0.775069;0.770172;0.769454;0.767600;0.758281;0.756011;0.744150;0.743565;0.738214;0.728914;0.725535;0.718035;0.712398;0.703359;0.702810;0.692063;0.687371;0.678860;0.664790;0.663668;0.654345;0.652070;0.641013;0.638616;0.630525;0.620536;0.619848;0.609600;0.601176;0.601187;0.589937;0.590758;0.583000;0.581101
0.541386;0.540343;0.541165;0.541732;0.545668;0.546599;0.548938;0.555948;0.559793;0.559043;0.560954;0.567090;0.576033;0.573481;0.580762;0.580562;0.583433;0.584368;0.588597;0.595306;0.598537;0.602397;0.601862;0.606886;0.616897;0.616692;0.620784;0.625259;0.625680;0.631005;0.630698;0.632339;0.639188;0.643292;0.644071;0.649060;0.648677;0.652555;0.653236;0.655075;0.657069;0.656908;0.662977;0.663778;0.662085;0.664520;0.670214;0.667572;0.672476;0.667548;0.676999;0.671022;0.671066;0.673404;0.674052;0.673646;0.675332;0.675958;0.673646;0.670100;0.672605;0.677044;0.675035;0.676668;0.676390;0.670307;0.671523;0.674180;0.676468;0.668099;0.676306;0.669400;0.669208;0.665736;0.664225;0.665845;0.664266;0.661582;0.660326;0.655727;0.655870;0.658394;0.653124;0.652072;0.655163;0.651121;0.646657;0.647281;0.644157;0.641930;0.642373;0.639314;0.628256;0.631365;0.631490;0.629118;0.628403;0.625052;0.626053;0.620640;0.618965;0.621276;0.614319;0.618259;0.616048;0.617078;0.614742;0.612869;0.608883;0.614171;0.610173;0.612752;0.609343;0.611091;0.613804;0.617435;0.617973;0.618138;0.614453;0.619780;0.621866;0.625047;0.622263;0.625234;0.625917;0.638653;0.639913;0.639282;0.645316;0.642222;0.645933;0.652852;0.658385;0.658373;0.661171;0.669505;0.671531;0.679793;0.682191;0.688454;0.693911;0.696711;0.696641;0.697524;0.702344;0.702225;0.706195;0.713494;0.717442;0.712185;0.719866;0.724211;0.724081;0.725948;0.723994;0.728075;0.728417;0.728518;0.727587;0.722913;0.726204;0.727133;0.721461;0.723702;0.717674;0.714454;0.717028;0.713989;0.708686;0.705214;0.702437;0.695381;0.692008;0.687432;0.684254;0.673015;0.674117;0.666244;0.663723;0.657094;0.651496;0.644785;0.642855;0.637361;0.630898;0.623019;0.618383;0.612490;0.609038;0.601079;0.592552;0.587500;0.587108;0.580003;0.574348;0.569653;0.567447;0.557814;0.558925;0.555602
0.527186;0.528059;0.528791;0.532122;0.532856;0.531983;0.540523;0.539430;0.540179;0.546441;0.546219;0.547560;0.551654;0.552747;0.560796;0.558589;0.554365;0.565931;0.567001;0.568272;0.571806;0.573143;0.577396;0.574070;0.581770;0.579435;0.583823;0.584876;0.592121;0.585471;0.589330;0.590626;0.597420;0.601184;0.592357;0.598340;0.599650;0.599578;0.598381;0.600512;0.598364;0.601805;0.602613;0.600410;0.595626;0.598858;0.598263;0.597223;0.595120;0.599945;0.598643;0.596146;0.596064;0.589983;0.594620;0.597952;0.590613;0.587999;0.596928;0.583576;0.591424;0.582821;0.583059;0.583860;0.582536;0.582134;0.584856;0.585084;0.581628;0.581126;0.588199;0.587573;0.589776;0.582039;0.588807;0.585901;0.587825;0.587917;0.589748;0.596395;0.595198;0.602497;0.601876;0.606343;0.609750;0.612563;0.618699;0.620401;0.619726;0.628864;0.632772;0.642348;0.640637;0.649131;0.649470;0.660099;0.666534;0.667553;0.678669;0.674532;0.683477;0.687413;0.694839;0.701382;0.707502;0.711616;0.719432;0.723704;0.728937;0.728156;0.734146;0.740438;0.741608;0.752690;0.757896;0.754900;0.760305;0.770837;0.767742;0.775018;0.776174;0.771419;0.779962;0.778784;0.786181;0.780957;0.789584;0.783670;0.787943;0.790260;0.786009;0.787999;0.789855;0.784081;0.785905;0.786976;0.783480;0.786200;0.782607;0.779179;0.781191;0.779167;0.778652;0.777369;0.773322;0.771322;0.767054;0.765190;0.762510;0.761588;0.765270;0.753363;0.754664;0.747850;0.743134;0.739489;0.736452;0.734022;0.732616;0.725897;0.721562;0.719923;0.710924;0.707626;0.707633;0.702890;0.691521;0.688601;0.683904;0.680414;0.678369;0.668258;0.664180;0.664438;0.653036;0.647678;0.642654;0.641347;0.630048;0.631802;0.625256;0.619256;0.605186;0.611476;0.601790;0.597288;0.590887;0.587831;0.582035;0.579040;0.575887;0.573794;0.569535;0.560570;0.563006;0.559439;0.550506;0.546402;0.547417;0.543577
0.502997;0.512704;0.509748;0.509867;0.516415;0.511528;0.517294;0.516761;0.513326;0.519111;0.518333;0.516817;0.518840;0.515940;0.521969;0.523171;0.525492;0.526739;0.527123;0.526636;0.530827;0.532899;0.536942;0.540753;0.537936;0.537199;0.540930;0.547529;0.546975;0.546005;0.555174;0.553553;0.561030;0.560719;0.563814;0.564647;0.576262;0.574610;0.575410;0.588880;0.591473;0.589567;0.597412;0.608897;0.603118;0.609080;0.613409;0.620926;0.623567;0.631446;0.635331;0.639810;0.642261;0.652417;0.653972;0.664431;0.663615;0.668003;0.675289;0.682220;0.684797;0.693975;0.701390;0.704678;0.708707;0.720144;0.729967;0.725918;0.730049;0.738632;0.741836;0.743436;0.745971;0.751261;0.759769;0.763050;0.767371;0.769264;0.774839;0.777948;0.780978;0.788908;0.790772;0.791069;0.788089;0.795744;0.793395;0.799906;0.797223;0.801937;0.812945;0.806698;0.806562;0.808870;0.808484;0.808157;0.812358;0.807181;0.809822;0.810130;0.813065;0.816319;0.809303;0.812561;0.812117;0.807296;0.803793;0.805550;0.803401;0.801942;0.803892;0.800915;0.801051;0.795409;0.799828;0.792349;0.791754;0.786602;0.786852;0.784647;0.779012;0.774014;0.774415;0.771133;0.766793;0.764680;0.757605;0.757254;0.747292;0.743793;0.746822;0.736817;0.733259;0.730888;0.726831;0.717784;0.719453;0.711163;0.708591;0.702998;0.699161;0.691185;0.690503;0.683683;0.680211;0.672832;0.665367;0.667350;0.664624;0.660413;0.648759;0.648499;0.646994;0.642923;0.634844;0.629972;0.632398;0.624192;0.624000;0.611124;0.611447;0.605134;0.605527;0.600850;0.600995;0.591765;0.586832;0.589779;0.586535;0.578295;0.575854;0.574769;0.572417;0.572765;0.567990;0.563993;0.559440;0.562450;0.556854;0.554945;0.553864;0.556233;0.550035;0.544092;0.545036;0.542195;0.536041;0.532609;0.534770;0.533628;0.530291;0.528306;0.520976;0.530263;0.529372;0.522056;0.520425;0.519182;0.521556;0.519490
0.559277;0.558758;0.562785;0.562831;0.572970;0.571798;0.581359;0.578971;0.588107;0.593008;0.602144;0.607586;0.603697;0.612891;0.624196;0.619190;0.630158;0.628674;0.638958;0.642366;0.646660;0.653286;0.654124;0.660292;0.664789;0.670912;0.671202;0.676175;0.678987;0.679129;0.685331;0.691455;0.692218;0.689498;0.695228;0.699229;0.695154;0.705170;0.700251;0.707114;0.704522;0.700381;0.699051;0.699207;0.704685;0.700156;0.695176;0.697631;0.693488;0.687610;0.686836;0.687185;0.681724;0.683595;0.677843;0.670045;0.669725;0.664328;0.658830;0.655651;0.650512;0.644774;0.640271;0.636664;0.632595;0.629076;0.626328;0.619110;0.616897;0.613044;0.604782;0.604494;0.595370;0.596352;0.590217;0.588240;0.585073;0.582381;0.576790;0.570709;0.572374;0.568068;0.565078;0.563481;0.562850;0.562777;0.557573;0.556877;0.558316;0.555066;0.557725;0.555724;0.547385;0.552228;0.553898;0.552827;0.548618;0.556200;0.553616;0.555012;0.558592;0.555984;0.563664;0.563016;0.565067;0.572246;0.567987;0.569541;0.570194;0.577529;0.576611;0.584400;0.583271;0.587380;0.592380;0.596000;0.598992;0.604109;0.607018;0.613535;0.616257;0.619903;0.628010;0.626826;0.637353;0.643063;0.640460;0.654543;0.653901;0.661820;0.666859;0.673317;0.678767;0.686887;0.689185;0.695117;0.703505;0.710175;0.713272;0.719396;0.724790;0.730147;0.735122;0.738775;0.743302;0.749858;0.751513;0.753249;0.766464;0.765564;0.765485;0.773280;0.771026;0.771275;0.773394;0.775228;0.779328;0.780266;0.777170;0.779028;0.778162;0.780207;0.772604;0.772503;0.769988;0.764843;0.767486;0.759554;0.760160;0.755738;0.747055;0.748538;0.740929;0.739348;0.731316;0.725447;0.718024;0.714803;0.702840;0.699022;0.693943;0.686201;0.681608;0.672510;0.661975;0.659646;0.657331;0.647358;0.639229;0.640276;0.632470;0.625890;0.615114;0.611507;0.602466;0.603186;0.592774;0.586682;0.581687;0.582766
0.587997;0.596660;0.601084;0.604678;0.613153;0.617365;0.622659;0.637719;0.640316;0.653364;0.657447;0.669911;0.678346;0.685119;0.690077;0.698552;0.704385;0.709741;0.723884;0.729962;0.741169;0.742713;0.751178;0.762377;0.770486;0.776749;0.786079;0.787244;0.799713;0.803706;0.805579;0.811452;0.819609;0.826770;0.829060;0.829186;0.834767;0.839565;0.833641;0.842433;0.843325;0.842296;0.847762;0.840851;0.845399;0.842544;0.844982;0.838263;0.841530;0.838634;0.837820;0.832895;0.829868;0.825813;0.821852;0.820809;0.814006;0.809555;0.803566;0.795032;0.791845;0.784728;0.786047;0.772708;0.767415;0.762670;0.757156;0.749955;0.747112;0.739269;0.734350;0.730236;0.723819;0.711896;0.710682;0.710072;0.700307;0.699060;0.696572;0.688509;0.682809;0.681052;0.674086;0.673508;0.666437;0.662917;0.660948;0.658686;0.654277;0.652717;0.646685;0.650172;0.640817;0.641148;0.637988;0.636620;0.629546;0.629226;0.629946;0.630949;0.628558;0.625700;0.627235;0.622052;0.625260;0.619287;0.622538;0.618782;0.619329;0.617184;0.617268;0.611533;0.613897;0.611420;0.612514;0.605970;0.612068;0.607896;0.605288;0.609907;0.609104;0.606492;0.603443;0.601098;0.602517;0.600732;0.600590;0.599265;0.595122;0.599083;0.596940;0.597280;0.598456;0.595480;0.594447;0.584719;0.592828;0.592179;0.589248;0.583529;0.583633;0.591661;0.581180;0.578996;0.582448;0.576919;0.581470;0.576456;0.576098;0.575269;0.571223;0.572222;0.572773;0.570061;0.565378;0.566008;0.562267;0.565784;0.566440;0.562333;0.561818;0.558578;0.554317;0.554931;0.556290;0.551339;0.548371;0.551126;0.549142;0.547730;0.545167;0.543507;0.545083;0.543077;0.542865;0.542836;0.541501;0.541833;0.541301;0.534018;0.534313;0.531008;0.533595;0.531153;0.528143;0.528481;0.531202;0.525708;0.523610;0.523393;0.526469;0.524775;0.523723;0.523535;0.523630;0.520310;0.519095;0.516645;0.517578;0.517937
0.553811;0.563490;0.565375;0.569135;0.574794;0.578134;0.584817;0.584604;0.589970;0.599112;0.602572;0.607626;0.615506;0.618481;0.622151;0.634110;0.641430;0.637289;0.644416;0.660288;0.663628;0.669424;0.671739;0.681715;0.682440;0.690617;0.697387;0.701524;0.706085;0.715376;0.719268;0.722263;0.734200;0.740622;0.748731;0.749397;0.752841;0.763984;0.769391;0.767187;0.774039;0.786392;0.779782;0.789231;0.798345;0.802186;0.806160;0.806188;0.809657;0.816154;0.819787;0.823576;0.822641;0.825925;0.836153;0.834248;0.838867;0.842315;0.845888;0.842631;0.843714;0.849557;0.850084;0.850353;0.851473;0.850123;0.853871;0.857974;0.854556;0.853324;0.846827;0.853653;0.848836;0.846653;0.848267;0.843976;0.841654;0.838188;0.834043;0.829645;0.829156;0.822864;0.814995;0.816978;0.811493;0.808259;0.802915;0.802085;0.790741;0.786670;0.779188;0.768065;0.766829;0.761867;0.754863;0.743768;0.739090;0.726791;0.727921;0.716000;0.711337;0.702801;0.698532;0.688905;0.677776;0.667262;0.660015;0.659344;0.655553;0.644766;0.636729;0.629552;0.628427;0.617459;0.610940;0.603089;0.598573;0.592961;0.592759;0.585058;0.582706;0.578822;0.572101;0.567834;0.561453;0.557994;0.554741;0.552295;0.549035;0.547820;0.542635;0.538606;0.541466;0.535576;0.531236;0.533273;0.528350;0.536321;0.535821;0.532309;0.527318;0.522158;0.521732;0.522445;0.523195;0.522211;0.519357;0.519620;0.516212;0.518612;0.515981;0.520174;0.520572;0.522289;0.521472;0.519469;0.521007;0.515678;0.515853;0.519404;0.516596;0.516047;0.519958;0.518201;0.513850;0.517120;0.519035;0.513891;0.510393;0.515881;0.514092;0.511882;0.513278;0.509334;0.513384;0.511740;0.509144;0.508394;0.511097;0.511631;0.506824;0.506586;0.507364;0.509493;0.506913;0.503453;0.501761;0.506181;0.506968;0.501587;0.505791;0.501575;0.503713;0.498494;0.502661;0.502285;0.501139;0.501545;0.496093;0.500293
0.526992;0.526552;0.527879;0.527533;0.531929;0.534005;0.533570;0.540064;0.540332;0.544450;0.544682;0.549399;0.549167;0.556869;0.557751;0.558462;0.562328;0.561513;0.564773;0.568539;0.566998;0.572187;0.573222;0.579154;0.581244;0.585221;0.592687;0.590945;0.592648;0.596762;0.596289;0.600181;0.607673;0.605889;0.612274;0.614484;0.616276;0.615681;0.619786;0.622874;0.627635;0.629302;0.630036;0.635511;0.637570;0.639056;0.636641;0.639929;0.644638;0.645390;0.650311;0.649987;0.651633;0.655223;0.661757;0.658734;0.660425;0.661233;0.664468;0.667306;0.671311;0.672340;0.671977;0.676124;0.677644;0.680746;0.680621;0.686913;0.685164;0.688203;0.693267;0.688176;0.694546;0.701588;0.700934;0.704467;0.707489;0.710347;0.714414;0.710704;0.721636;0.719383;0.719970;0.723978;0.728143;0.736925;0.735621;0.734712;0.740446;0.746287;0.747270;0.749868;0.748461;0.753428;0.754096;0.763369;0.768253;0.765049;0.770413;0.772544;0.773840;0.778091;0.778898;0.784774;0.781439;0.786999;0.787886;0.789442;0.792952;0.788038;0.794869;0.795787;0.793663;0.795657;0.790845;0.794059;0.789709;0.792846;0.791478;0.791622;0.786689;0.786660;0.786475;0.780717;0.779218;0.778860;0.770777;0.771867;0.763240;0.764426;0.761321;0.758121;0.746967;0.748641;0.747286;0.735232;0.731155;0.722710;0.719666;0.718049;0.711285;0.700790;0.705062;0.696209;0.688602;0.687505;0.681462;0.675179;0.669517;0.665235;0.659598;0.656529;0.650680;0.649691;0.636519;0.635388;0.634254;0.622739;0.623408;0.611865;0.612035;0.606773;0.602873;0.596394;0.594746;0.590127;0.589987;0.582148;0.579660;0.579438;0.571465;0.566038;0.570661;0.568275;0.561404;0.562823;0.555582;0.554807;0.548872;0.547350;0.544301;0.542395;0.541714;0.541852;0.537484;0.535637;0.529334;0.532891;0.529645;0.525163;0.527724;0.525434;0.529184;0.524514;0.518235;0.516767;0.520478;0.522295;0.516273;0.515687
0.507285;0.508408;0.503769;0.511608;0.505025;0.510459;0.512695;0.517502;0.514077;0.514431;0.517805;0.518743;0.519884;0.516837;0.520708;0.527743;0.524884;0.527299;0.528946;0.532253;0.535827;0.537589;0.537606;0.541950;0.540672;0.544773;0.550044;0.551505;0.554530;0.559737;0.557548;0.564562;0.565454;0.569720;0.576001;0.574769;0.583132;0.586620;0.590075;0.593424;0.600321;0.602294;0.607637;0.606716;0.615881;0.620391;0.628494;0.636861;0.640088;0.641084;0.646902;0.652196;0.663293;0.667806;0.676016;0.676803;0.687026;0.698962;0.695963;0.701321;0.703240;0.716414;0.724529;0.729664;0.724806;0.737327;0.742903;0.743366;0.743633;0.746882;0.757355;0.753810;0.765077;0.767170;0.767273;0.768448;0.770275;0.772308;0.771031;0.775723;0.771926;0.773155;0.769759;0.771322;0.774013;0.769438;0.769457;0.766094;0.759436;0.757334;0.760747;0.758159;0.752475;0.747607;0.744095;0.745002;0.739915;0.734186;0.730300;0.727851;0.725289;0.710681;0.711606;0.708228;0.702910;0.700370;0.697031;0.692933;0.685473;0.686026;0.684176;0.673950;0.675051;0.665377;0.666465;0.665117;0.662273;0.664887;0.659264;0.656286;0.653240;0.655115;0.654890;0.654565;0.652458;0.651377;0.650161;0.648745;0.650738;0.653075;0.651400;0.650683;0.651327;0.656907;0.655222;0.654993;0.657161;0.661069;0.661202;0.659900;0.662018;0.663207;0.668623;0.672114;0.670660;0.669414;0.673054;0.678522;0.677670;0.672253;0.677567;0.679163;0.676661;0.677003;0.680721;0.679509;0.676001;0.676159;0.676896;0.676709;0.670995;0.679625;0.673658;0.667877;0.669249;0.668118;0.667060;0.659384;0.657204;0.657133;0.650827;0.648878;0.644492;0.643063;0.638790;0.635597;0.630118;0.626442;0.623111;0.623016;0.617166;0.612147;0.606736;0.597185;0.595878;0.592201;0.582597;0.585323;0.579988;0.569268;0.569571;0.569784;0.562248;0.560642;0.557233;0.548905;0.546288;0.544121;0.541553;0.539580
0.573158;0.571626;0.576928;0.583471;0.585894;0.592910;0.600767;0.601758;0.610535;0.616584;0.617740;0.632855;0.631903;0.638931;0.647788;0.654451;0.658974;0.663614;0.668971;0.675837;0.683040;0.690045;0.698343;0.697591;0.706969;0.710200;0.717544;0.721215;0.728198;0.732628;0.739743;0.739130;0.745547;0.744358;0.750377;0.752083;0.756097;0.760326;0.764046;0.758898;0.764888;0.765026;0.767359;0.757237;0.765780;0.766069;0.766861;0.762304;0.762467;0.760221;0.760949;0.757911;0.750418;0.748478;0.757154;0.746066;0.736933;0.738975;0.738565;0.732253;0.724146;0.725422;0.717020;0.711401;0.708043;0.707037;0.698437;0.696674;0.694070;0.684314;0.681830;0.675747;0.676292;0.668318;0.662771;0.661452;0.655043;0.653991;0.650746;0.642354;0.637034;0.641300;0.631193;0.632110;0.627221;0.625037;0.621205;0.617724;0.618322;0.607974;0.608970;0.601744;0.602980;0.601463;0.599617;0.594225;0.595980;0.596418;0.594258;0.591680;0.587749;0.591691;0.585541;0.585695;0.588914;0.586534;0.586591;0.585967;0.582972;0.587588;0.587380;0.585521;0.585679;0.587113;0.591593;0.589584;0.588335;0.593648;0.593316;0.593694;0.596926;0.597837;0.598956;0.600175;0.599028;0.603662;0.606397;0.610735;0.612408;0.611010;0.613505;0.622443;0.619830;0.624838;0.624583;0.626387;0.633925;0.635541;0.637296;0.635366;0.643759;0.643001;0.646202;0.649053;0.654042;0.651224;0.659780;0.660498;0.666170;0.662644;0.663706;0.665651;0.665326;0.666780;0.669592;0.673440;0.668177;0.668298;0.665101;0.668708;0.667646;0.664654;0.663908;0.661655;0.662049;0.663707;0.657399;0.658349;0.657128;0.655732;0.650031;0.643604;0.645378;0.641825;0.638783;0.633876;0.631173;0.627508;0.620441;0.620646;0.612381;0.608915;0.605884;0.606906;0.598861;0.591494;0.592132;0.586945;0.586125;0.581583;0.575455;0.572950;0.568102;0.561711;0.563172;0.554978;0.557212;0.552841;0.554367;0.545849
0.528887;0.532517;0.529732;0.536082;0.540351;0.536955;0.543885;0.545540;0.543172;0.546405;0.550787;0.554250;0.556689;0.559621;0.563653;0.564873;0.569104;0.567121;0.572883;0.571983;0.580785;0.578092;0.580462;0.586667;0.590466;0.589293;0.591618;0.599441;0.591853;0.597516;0.600935;0.605274;0.607666;0.609620;0.610294;0.608020;0.610388;0.612447;0.618831;0.614624;0.618742;0.619892;0.620346;0.617162;0.623230;0.619732;0.620200;0.617239;0.618724;0.618398;0.622222;0.625108;0.624641;0.617757;0.625819;0.619547;0.622092;0.626047;0.623321;0.629488;0.626606;0.627347;0.624096;0.624102;0.627671;0.627408;0.629653;0.629046;0.630586;0.632532;0.631717;0.638378;0.637077;0.644925;0.647763;0.646101;0.650080;0.656428;0.662957;0.665658;0.669302;0.665589;0.678241;0.681036;0.690743;0.694426;0.697324;0.705352;0.711633;0.718755;0.721110;0.728967;0.735161;0.740100;0.750694;0.759197;0.762115;0.771567;0.775990;0.786097;0.788971;0.796721;0.799044;0.809522;0.816803;0.820954;0.824082;0.832590;0.832202;0.836652;0.843825;0.851256;0.849855;0.854947;0.856154;0.857261;0.858758;0.857738;0.858917;0.862389;0.858179;0.858153;0.854097;0.853385;0.853077;0.845356;0.838748;0.833666;0.831516;0.828036;0.823889;0.822786;0.806895;0.805093;0.790299;0.789468;0.778281;0.775588;0.761780;0.758114;0.751470;0.743062;0.734691;0.728447;0.711744;0.705173;0.699219;0.694333;0.686373;0.675662;0.666464;0.655358;0.649884;0.640687;0.634507;0.626556;0.621375;0.613821;0.608759;0.602104;0.594594;0.583062;0.587119;0.579744;0.567842;0.567130;0.568388;0.556033;0.555731;0.553358;0.545460;0.542732;0.536615;0.540528;0.538842;0.524881;0.530619;0.524590;0.520760;0.523614;0.516220;0.516081;0.514509;0.515370;0.514341;0.507503;0.511914;0.509041;0.508107;0.507074;0.508722;0.508163;0.503270;0.504979;0.504378;0.501240;0.502490;0.503227;0.497985;0.499236
0.510535;0.511716;0.513350;0.510916;0.513180;0.512128;0.517316;0.515019;0.518869;0.514425;0.517479;0.514332;0.519689;0.519681;0.518044;0.522388;0.524765;0.528337;0.527741;0.526836;0.532229;0.528072;0.535051;0.532401;0.532983;0.532862;0.543576;0.539101;0.539692;0.543942;0.546134;0.547486;0.551458;0.560308;0.561081;0.558806;0.559440;0.563173;0.568467;0.569071;0.573516;0.578768;0.573628;0.578623;0.580562;0.580885;0.586841;0.591037;0.593176;0.598844;0.599531;0.600958;0.604639;0.608437;0.616206;0.615006;0.618390;0.625614;0.623335;0.627930;0.626816;0.637172;0.635189;0.637729;0.640271;0.644285;0.646746;0.647557;0.654540;0.653766;0.657025;0.657436;0.663247;0.665215;0.663838;0.669169;0.673773;0.670478;0.668355;0.668957;0.674046;0.675028;0.675675;0.672003;0.667498;0.671300;0.678843;0.672820;0.675520;0.671040;0.673581;0.677383;0.670364;0.669730;0.667432;0.667799;0.671305;0.671419;0.669982;0.663917;0.664863;0.662551;0.661476;0.666043;0.664616;0.662283;0.659423;0.659745;0.665935;0.660147;0.660626;0.661851;0.667906;0.672086;0.671194;0.669780;0.670357;0.667883;0.677486;0.676949;0.679871;0.682581;0.683232;0.680107;0.688150;0.692116;0.698048;0.698248;0.701945;0.712117;0.712129;0.718097;0.719280;0.722245;0.729532;0.732002;0.736225;0.743105;0.742862;0.747521;0.755433;0.754098;0.765707;0.763172;0.769150;0.774637;0.775974;0.777677;0.782784;0.785136;0.786699;0.790433;0.787136;0.793376;0.794953;0.796765;0.796703;0.792076;0.791962;0.790252;0.786604;0.790325;0.788209;0.783833;0.782242;0.784266;0.774912;0.769829;0.765469;0.766578;0.760145;0.753738;0.748267;0.743034;0.739002;0.734530;0.727294;0.720764;0.713315;0.706767;0.699453;0.691463;0.689507;0.676624;0.674454;0.665353;0.661850;0.651342;0.647585;0.641581;0.630224;0.628596;0.619254;0.615404;0.608596;0.603019;0.588000;0.596090;0.586161;0.576147
0.548057;0.554372;0.556122;0.558823;0.564938;0.568639;0.569545;0.577642;0.579849;0.583814;0.585708;0.597185;0.596816;0.598528;0.604741;0.607576;0.612077;0.617672;0.624620;0.628895;0.635479;0.639718;0.645301;0.646353;0.654808;0.660749;0.662898;0.665920;0.669873;0.671123;0.677408;0.682279;0.682722;0.690117;0.692656;0.692194;0.695474;0.702070;0.703150;0.702914;0.701614;0.710477;0.707767;0.714030;0.714228;0.716060;0.717143;0.721147;0.720508;0.718567;0.719061;0.720697;0.716302;0.714992;0.718356;0.719830;0.721493;0.718334;0.718003;0.716849;0.717635;0.712111;0.715920;0.711415;0.711419;0.715396;0.714951;0.711364;0.710796;0.712694;0.710777;0.714743;0.709909;0.706511;0.708658;0.711190;0.705384;0.707170;0.704127;0.711830;0.708397;0.707916;0.702473;0.708485;0.703871;0.704321;0.704773;0.703882;0.705822;0.707723;0.708727;0.706634;0.708685;0.705375;0.705266;0.710131;0.716733;0.708295;0.710286;0.712589;0.713239;0.711778;0.715270;0.708209;0.711268;0.719015;0.710165;0.709430;0.711700;0.710735;0.705785;0.717856;0.710905;0.717028;0.709750;0.711894;0.710744;0.708612;0.709530;0.707752;0.708754;0.707679;0.704829;0.699668;0.698429;0.702172;0.697029;0.694661;0.691869;0.686731;0.687711;0.683871;0.676938;0.677070;0.676666;0.673566;0.672431;0.668254;0.662909;0.660296;0.661224;0.653741;0.649773;0.648713;0.647133;0.641293;0.637288;0.629845;0.627641;0.626755;0.625925;0.624631;0.621005;0.613947;0.608647;0.609638;0.609724;0.600709;0.602580;0.596550;0.594431;0.588292;0.586299;0.588133;0.579231;0.579028;0.577966;0.570440;0.573418;0.574565;0.569944;0.564240;0.557782;0.559636;0.558377;0.558739;0.556335;0.547823;0.548709;0.543232;0.544576;0.539766;0.542221;0.536435;0.534580;0.535710;0.529283;0.528536;0.527198;0.522808;0.525373;0.521757;0.523395;0.520954;0.519290;0.520205;0.517211;0.512166;0.512428;0.512841
0.510908;0.511618;0.509538;0.513560;0.513802;0.513359;0.518689;0.516265;0.520697;0.516205;0.518190;0.519716;0.520025;0.521593;0.521538;0.527908;0.522409;0.523539;0.526058;0.534303;0.530519;0.528187;0.532376;0.534102;0.535949;0.536985;0.534518;0.546489;0.543969;0.547070;0.546458;0.553952;0.554415;0.552796;0.555351;0.558340;0.556608;0.559902;0.561167;0.564005;0.566780;0.573114;0.572060;0.573943;0.579194;0.579821;0.579393;0.584185;0.584958;0.590669;0.587654;0.593302;0.600991;0.597079;0.604900;0.605744;0.609326;0.610410;0.615564;0.613419;0.624608;0.622781;0.625615;0.631418;0.632232;0.634499;0.638877;0.637686;0.643148;0.640823;0.647304;0.651864;0.653083;0.650063;0.663008;0.661323;0.661165;0.671242;0.670785;0.675126;0.673984;0.678693;0.680614;0.681259;0.683530;0.686259;0.685639;0.689260;0.693754;0.694808;0.695047;0.700501;0.708635;0.701696;0.702469;0.709139;0.710650;0.714306;0.714145;0.717692;0.716682;0.719899;0.724599;0.726241;0.725093;0.725058;0.730388;0.729418;0.729342;0.736185;0.735110;0.736198;0.735234;0.740012;0.742356;0.743383;0.740253;0.744560;0.743856;0.745358;0.750744;0.747566;0.757031;0.752200;0.751330;0.752390;0.756485;0.759662;0.755550;0.751146;0.760578;0.755233;0.760114;0.755724;0.757562;0.755417;0.756073;0.754427;0.759728;0.756264;0.759575;0.755068;0.760913;0.754582;0.756486;0.752567;0.747933;0.754678;0.751512;0.749979;0.750023;0.748219;0.742460;0.741084;0.738601;0.737247;0.734319;0.734222;0.730846;0.728161;0.725107;0.722393;0.721983;0.715493;0.707491;0.708518;0.704281;0.699107;0.692221;0.685034;0.686355;0.678641;0.674036;0.667285;0.662857;0.659892;0.656366;0.653262;0.646890;0.637820;0.630588;0.629751;0.618433;0.619500;0.613575;0.610484;0.604267;0.596958;0.593699;0.590250;0.584688;0.577263;0.577199;0.571592;0.566472;0.562936;0.561131;0.557718;0.550887;0.550822
0.525115;0.527999;0.525391;0.532438;0.533761;0.533125;0.532510;0.535965;0.536701;0.543093;0.544746;0.549058;0.546186;0.552543;0.551726;0.556861;0.557673;0.567391;0.560933;0.565372;0.569439;0.570415;0.570023;0.573517;0.574346;0.580176;0.582839;0.589870;0.588241;0.593897;0.595076;0.596413;0.600468;0.602099;0.606653;0.608664;0.609022;0.613921;0.618272;0.618155;0.622869;0.625324;0.632324;0.632393;0.633053;0.637202;0.636301;0.638784;0.648301;0.650611;0.648486;0.656339;0.650888;0.654589;0.655874;0.661004;0.664616;0.669780;0.671646;0.672025;0.673331;0.674882;0.677036;0.678157;0.683381;0.687417;0.687080;0.686295;0.687071;0.690480;0.698221;0.697874;0.700834;0.701735;0.708669;0.705278;0.707074;0.708518;0.716806;0.717358;0.718612;0.721470;0.725084;0.731332;0.724829;0.734668;0.731211;0.733794;0.732466;0.735932;0.734354;0.737621;0.737777;0.742615;0.744853;0.749354;0.745470;0.750338;0.752484;0.750651;0.758668;0.755116;0.756270;0.757680;0.757041;0.759769;0.759872;0.759175;0.761075;0.763725;0.760394;0.762704;0.756688;0.761046;0.758685;0.756409;0.762191;0.767117;0.764806;0.754072;0.758379;0.756800;0.758153;0.751768;0.751515;0.750622;0.747254;0.747037;0.741801;0.742540;0.739186;0.734022;0.728712;0.729582;0.727911;0.721540;0.719038;0.718321;0.715864;0.709648;0.708639;0.704421;0.700285;0.696702;0.693748;0.693272;0.684581;0.685370;0.679419;0.677283;0.671388;0.667461;0.665600;0.658245;0.656389;0.653828;0.648894;0.649626;0.640679;0.638538;0.634732;0.629990;0.625971;0.625157;0.621799;0.617374;0.613117;0.617209;0.607029;0.605501;0.600608;0.594143;0.595100;0.594056;0.589007;0.583879;0.577101;0.576988;0.575482;0.574522;0.570315;0.566382;0.560332;0.563242;0.554808;0.554064;0.549459;0.546041;0.546756;0.544010;0.541722;0.538946;0.534671;0.533743;0.533026;0.535385;0.529427;0.525941;0.526715;0.525545
0.527377;0.530417;0.532120;0.536780;0.536577;0.541470;0.542708;0.544143;0.548592;0.550719;0.552354;0.559440;0.560225;0.562655;0.566576;0.566714;0.572444;0.568093;0.573314;0.577683;0.584958;0.587590;0.591653;0.591283;0.593106;0.599804;0.604873;0.605852;0.609091;0.610857;0.619324;0.614425;0.615468;0.620421;0.625500;0.625109;0.633672;0.634187;0.635441;0.636906;0.637561;0.643856;0.645146;0.642184;0.648055;0.645612;0.655878;0.651245;0.655296;0.657211;0.658221;0.662452;0.661874;0.671010;0.665087;0.670636;0.667117;0.670629;0.669113;0.671694;0.677874;0.674452;0.674833;0.674197;0.674007;0.680067;0.679698;0.678239;0.683476;0.686225;0.684214;0.681542;0.686580;0.689451;0.686733;0.689651;0.693367;0.688518;0.692868;0.687031;0.693173;0.689668;0.690979;0.693854;0.700409;0.698287;0.699126;0.694593;0.697897;0.695184;0.699523;0.697669;0.699695;0.702059;0.698217;0.701489;0.701855;0.701871;0.702855;0.704291;0.702954;0.706741;0.709400;0.708447;0.707791;0.704702;0.709098;0.707573;0.708697;0.709635;0.711280;0.711468;0.715592;0.708394;0.706460;0.709861;0.710259;0.718280;0.713686;0.711032;0.716587;0.711730;0.722445;0.715650;0.717751;0.716751;0.711020;0.711156;0.711266;0.712079;0.712493;0.711604;0.717131;0.717552;0.714310;0.714039;0.710949;0.710336;0.708371;0.704387;0.708360;0.710880;0.709800;0.708229;0.708242;0.708664;0.706025;0.704381;0.703424;0.703903;0.703299;0.693799;0.698542;0.702290;0.690203;0.688892;0.688964;0.682980;0.686510;0.684425;0.680325;0.679835;0.671009;0.671582;0.667096;0.666372;0.658795;0.658665;0.655943;0.652484;0.642975;0.646865;0.643591;0.635341;0.632403;0.636385;0.624810;0.620253;0.619868;0.616216;0.607941;0.606378;0.604851;0.595136;0.597836;0.595405;0.581969;0.585474;0.578945;0.578305;0.571035;0.565497;0.566204;0.563966;0.566451;0.552309;0.552618;0.549187;0.552985;0.543713
0.599681;0.602701;0.610873;0.614091;0.625442;0.636323;0.639478;0.651906;0.653594;0.662262;0.676897;0.679216;0.693894;0.697090;0.707070;0.715292;0.726398;0.731750;0.739870;0.749896;0.759189;0.764945;0.782096;0.781033;0.793383;0.798247;0.803083;0.810851;0.814636;0.828667;0.830266;0.839495;0.838816;0.839051;0.848393;0.850645;0.854343;0.859695;0.859502;0.855525;0.864193;0.864540;0.860663;0.858222;0.862189;0.858451;0.859230;0.854136;0.844782;0.841513;0.841118;0.836667;0.832713;0.827804;0.816171;0.811231;0.808358;0.801282;0.791726;0.787429;0.777272;0.773403;0.763358;0.756289;0.750046;0.736208;0.734510;0.725491;0.718402;0.713374;0.707529;0.697809;0.686757;0.683328;0.679726;0.671127;0.665991;0.657594;0.654904;0.646454;0.648491;0.644047;0.635328;0.639107;0.624609;0.629089;0.624337;0.623165;0.623329;0.617004;0.614894;0.608150;0.608715;0.607123;0.609874;0.607055;0.607311;0.602101;0.600211;0.601885;0.608252;0.608981;0.606181;0.606882;0.607781;0.607985;0.603204;0.607187;0.609306;0.612232;0.605673;0.608265;0.610162;0.613645;0.612788;0.610418;0.610943;0.611764;0.607017;0.606062;0.613078;0.612862;0.609458;0.613107;0.604660;0.605761;0.605465;0.611752;0.603883;0.605366;0.606414;0.600679;0.603473;0.602120;0.594928;0.595371;0.595793;0.590602;0.593129;0.593695;0.589720;0.584112;0.584141;0.582809;0.580493;0.583193;0.579755;0.578384;0.576359;0.571812;0.574362;0.569435;0.569933;0.561371;0.564361;0.564593;0.559916;0.564269;0.558475;0.559269;0.556345;0.553675;0.547497;0.545552;0.547133;0.549872;0.543278;0.538520;0.539167;0.538010;0.539695;0.533595;0.536657;0.535507;0.532596;0.532990;0.532343;0.526645;0.527352;0.528883;0.529337;0.526071;0.525090;0.523849;0.525676;0.522788;0.519897;0.518731;0.517425;0.519583;0.515265;0.509609;0.514561;0.511036;0.510072;0.514449;0.510447;0.508204;0.508279;0.513672
0.505183;0.502673;0.499978;0.505819;0.506726;0.503579;0.499912;0.502123;0.507118;0.507561;0.500573;0.501640;0.503859;0.504632;0.507292;0.508795;0.507510;0.506414;0.503271;0.513503;0.504519;0.506773;0.508007;0.508079;0.508524;0.507387;0.508995;0.506510;0.509118;0.510502;0.513993;0.510417;0.507390;0.509671;0.513210;0.510915;0.513609;0.510458;0.513160;0.514818;0.508794;0.514319;0.511529;0.515669;0.515428;0.515613;0.517625;0.511860;0.519368;0.517178;0.516615;0.517868;0.525533;0.520698;0.521258;0.520303;0.523866;0.528896;0.525111;0.532726;0.529956;0.535717;0.533925;0.538702;0.538174;0.538646;0.546126;0.549547;0.553524;0.552246;0.558990;0.563083;0.563339;0.571358;0.572049;0.583769;0.582793;0.587494;0.586175;0.598297;0.604826;0.612300;0.612206;0.616854;0.625635;0.634301;0.643808;0.648573;0.656413;0.666524;0.672386;0.680176;0.683588;0.696612;0.704698;0.715378;0.721422;0.725919;0.738410;0.745447;0.752507;0.758620;0.767121;0.776832;0.781994;0.799799;0.804171;0.809470;0.813616;0.816707;0.828422;0.832146;0.837069;0.845191;0.848604;0.856461;0.857429;0.863354;0.872467;0.867714;0.869448;0.875986;0.877354;0.883849;0.879491;0.880537;0.880339;0.884452;0.884695;0.879521;0.881947;0.880335;0.882356;0.877796;0.877730;0.872733;0.872166;0.865963;0.861538;0.859400;0.853990;0.851969;0.845030;0.846459;0.844689;0.832906;0.833442;0.824703;0.820410;0.816729;0.813146;0.800833;0.802666;0.796591;0.791888;0.786843;0.778584;0.775789;0.768484;0.765729;0.760178;0.753598;0.748673;0.746715;0.733249;0.729295;0.722805;0.714529;0.711622;0.700633;0.700509;0.695705;0.688181;0.685225;0.679601;0.667837;0.667612;0.662032;0.650810;0.647649;0.640617;0.635505;0.630857;0.626771;0.618911;0.616467;0.610992;0.607273;0.600725;0.588376;0.593294;0.584260;0.579262;0.580357;0.573589;0.570542;0.566139;0.561111;0.558154;0.560572
0.519312;0.519641;0.519659;0.523166;0.524576;0.527249;0.527024;0.528447;0.529321;0.535413;0.534160;0.538057;0.537327;0.537431;0.543466;0.543211;0.547325;0.548031;0.555710;0.554483;0.556254;0.558884;0.560773;0.568071;0.566330;0.570129;0.575910;0.573016;0.581612;0.585555;0.584362;0.589961;0.593375;0.602239;0.604655;0.604417;0.607805;0.616172;0.623305;0.623010;0.631598;0.630611;0.639225;0.644431;0.645757;0.652723;0.653927;0.659760;0.663551;0.667736;0.679076;0.682566;0.685657;0.698369;0.701824;0.702147;0.703403;0.714642;0.719626;0.726481;0.733531;0.733284;0.739067;0.739789;0.744394;0.747115;0.750328;0.755681;0.760543;0.760852;0.763833;0.768019;0.767776;0.767363;0.774398;0.772816;0.772953;0.776761;0.775512;0.772148;0.773508;0.772149;0.772201;0.769675;0.768731;0.759131;0.760233;0.761666;0.755479;0.753852;0.744955;0.743161;0.732875;0.731710;0.731374;0.723789;0.721429;0.714725;0.709186;0.704639;0.701499;0.693131;0.685679;0.682971;0.673174;0.671834;0.666952;0.666576;0.658872;0.656435;0.649996;0.649059;0.642328;0.639724;0.635226;0.637282;0.634127;0.629376;0.627308;0.630881;0.624386;0.623460;0.626136;0.624135;0.626917;0.624780;0.623943;0.627005;0.623680;0.627287;0.630108;0.629887;0.632347;0.634271;0.636982;0.640432;0.638791;0.642963;0.649790;0.652936;0.649765;0.656533;0.658176;0.660525;0.667404;0.664409;0.664169;0.671832;0.674451;0.674600;0.677335;0.680814;0.680013;0.685180;0.687257;0.682882;0.682358;0.686752;0.683918;0.684307;0.682501;0.688728;0.689542;0.685338;0.681723;0.677022;0.679218;0.672988;0.675539;0.668969;0.664728;0.663606;0.662305;0.657299;0.654327;0.650900;0.642925;0.644322;0.632699;0.630998;0.629014;0.626305;0.620095;0.617051;0.610105;0.610528;0.602170;0.600490;0.592910;0.584687;0.582936;0.580987;0.576762;0.572105;0.566774;0.564157;0.560162;0.554247;0.551554;0.545892
0.499057;0.504588;0.507534;0.508619;0.507694;0.501164;0.507893;0.505142;0.512536;0.508476;0.512652;0.513856;0.514298;0.519395;0.514261;0.520205;0.515628;0.524427;0.523556;0.527668;0.533424;0.534709;0.534543;0.538539;0.540907;0.544492;0.542538;0.554295;0.553686;0.564887;0.569363;0.573691;0.576802;0.580967;0.589594;0.594618;0.598777;0.607450;0.615348;0.625502;0.633662;0.636894;0.645377;0.655953;0.666055;0.676361;0.686323;0.695488;0.703739;0.711257;0.727890;0.737913;0.741788;0.753394;0.768134;0.772148;0.789065;0.798319;0.808951;0.817568;0.826831;0.841372;0.848271;0.860685;0.868940;0.868883;0.887402;0.896586;0.903538;0.904537;0.908907;0.916996;0.925325;0.931495;0.935476;0.939667;0.939764;0.944240;0.948456;0.942317;0.947266;0.946334;0.948083;0.939079;0.938253;0.940415;0.932265;0.929629;0.926968;0.922277;0.907752;0.905994;0.892046;0.889480;0.877184;0.871493;0.865366;0.854026;0.844717;0.833850;0.822261;0.813062;0.802932;0.792969;0.784207;0.774008;0.761802;0.750631;0.740066;0.729927;0.724006;0.712346;0.701502;0.691975;0.678943;0.675599;0.666859;0.661308;0.647857;0.643528;0.632364;0.631327;0.624291;0.615257;0.614751;0.608524;0.603621;0.594946;0.593924;0.591058;0.582614;0.582324;0.577411;0.569615;0.571283;0.565749;0.566633;0.563733;0.562197;0.563343;0.557501;0.556930;0.555211;0.560329;0.561245;0.556269;0.556972;0.554167;0.553779;0.554261;0.550137;0.552593;0.552196;0.551525;0.551693;0.547754;0.554463;0.546198;0.545850;0.545524;0.549897;0.545966;0.545537;0.553277;0.543796;0.545999;0.543735;0.537185;0.543811;0.545923;0.542213;0.537292;0.540151;0.536822;0.541350;0.533376;0.540374;0.532545;0.536976;0.533390;0.531265;0.533702;0.527593;0.522454;0.524513;0.524655;0.523498;0.518989;0.521479;0.519167;0.517135;0.517374;0.517302;0.517109;0.516828;0.513830;0.517578;0.514106;0.512654;0.506885
0.533778;0.540068;0.545008;0.548140;0.549736;0.554563;0.547495;0.555183;0.554912;0.559608;0.561481;0.566305;0.567629;0.571403;0.577691;0.582537;0.582280;0.582085;0.587206;0.590793;0.593255;0.592220;0.599360;0.605138;0.604619;0.610320;0.609751;0.611933;0.617015;0.617847;0.622089;0.623548;0.626810;0.629207;0.628813;0.630352;0.630693;0.631201;0.629475;0.631970;0.633095;0.633735;0.626524;0.628973;0.630023;0.632440;0.632263;0.629380;0.632720;0.626355;0.628578;0.624934;0.624087;0.624183;0.624182;0.616060;0.617981;0.615181;0.616132;0.612504;0.616064;0.610565;0.608206;0.610153;0.613844;0.613083;0.615338;0.613597;0.613561;0.611378;0.613181;0.610707;0.614801;0.613315;0.617561;0.617012;0.623527;0.625596;0.624060;0.628236;0.634571;0.637150;0.642019;0.643751;0.650726;0.652961;0.661401;0.666682;0.673152;0.679513;0.689405;0.691231;0.700958;0.708060;0.716107;0.719325;0.728270;0.736773;0.743569;0.751096;0.758622;0.763458;0.770945;0.777904;0.781335;0.793423;0.798380;0.803236;0.809593;0.812997;0.813117;0.823587;0.832060;0.833126;0.835369;0.840205;0.843178;0.846409;0.842900;0.851249;0.846533;0.849102;0.849982;0.845963;0.842372;0.843662;0.840380;0.839737;0.837303;0.832198;0.830144;0.825416;0.822829;0.811871;0.806875;0.801997;0.798887;0.792320;0.782015;0.778395;0.767426;0.761174;0.756676;0.748724;0.743573;0.735498;0.731464;0.723967;0.714788;0.706675;0.700539;0.693374;0.687490;0.676976;0.676392;0.670981;0.661169;0.649504;0.650225;0.640822;0.634190;0.628675;0.628122;0.623308;0.613426;0.609023;0.605173;0.602627;0.596328;0.585762;0.585221;0.578982;0.577674;0.576036;0.572314;0.566734;0.566799;0.565249;0.563152;0.556851;0.555034;0.556006;0.554424;0.547665;0.546236;0.545087;0.543140;0.536142;0.535331;0.538863;0.534632;0.532398;0.532565;0.531693;0.528180;0.527966;0.527032;0.522677;0.524390;0.525933
0.510245;0.518429;0.518477;0.514980;0.517338;0.520211;0.519383;0.520831;0.518423;0.524522;0.522188;0.523680;0.522222;0.528307;0.525594;0.535822;0.532089;0.531208;0.535461;0.539691;0.541127;0.546462;0.550347;0.549063;0.547601;0.551845;0.555566;0.561105;0.557341;0.559284;0.560866;0.567920;0.568262;0.572868;0.574543;0.574844;0.585049;0.580796;0.590369;0.595613;0.590821;0.596259;0.598519;0.604728;0.609920;0.614788;0.618360;0.621435;0.624052;0.627389;0.633305;0.635819;0.640851;0.635647;0.645496;0.651393;0.655138;0.657043;0.664712;0.660846;0.674711;0.675927;0.676873;0.685583;0.684281;0.688552;0.695990;0.697622;0.700458;0.701543;0.708904;0.704718;0.714244;0.718592;0.716233;0.720624;0.721067;0.721820;0.725695;0.726572;0.730743;0.729641;0.728757;0.735390;0.730874;0.736464;0.737949;0.732619;0.741413;0.738309;0.734884;0.737963;0.739324;0.733168;0.736971;0.737489;0.739225;0.738659;0.734517;0.737293;0.734556;0.736160;0.733005;0.731880;0.732022;0.734068;0.723688;0.724908;0.728817;0.725995;0.722984;0.727149;0.720966;0.722646;0.722919;0.725913;0.722786;0.724450;0.721927;0.723497;0.712286;0.721565;0.718837;0.716603;0.715940;0.715822;0.715950;0.714366;0.718943;0.719567;0.719002;0.713176;0.716745;0.713537;0.713045;0.718106;0.711002;0.713229;0.718772;0.717411;0.710847;0.715780;0.714253;0.711102;0.712499;0.714389;0.719119;0.709056;0.716568;0.704987;0.707222;0.705401;0.710443;0.702741;0.702351;0.703435;0.700844;0.694773;0.697034;0.693810;0.691701;0.688020;0.685765;0.683665;0.683672;0.674233;0.672056;0.669083;0.668391;0.662872;0.661558;0.653548;0.651654;0.649830;0.641685;0.629898;0.631093;0.629470;0.621042;0.621030;0.618504;0.616751;0.603194;0.607708;0.603360;0.598342;0.590062;0.591822;0.584977;0.583235;0.580729;0.575406;0.570243;0.570322;0.562502;0.560340;0.559592;0.551500;0.547820;0.552097
0.532092;0.533470;0.538313;0.535936;0.544835;0.548555;0.553235;0.551493;0.555526;0.559277;0.560752;0.559736;0.565779;0.569591;0.574637;0.573359;0.578231;0.588365;0.588876;0.589969;0.597579;0.603051;0.602193;0.605244;0.617257;0.618053;0.620820;0.624463;0.625124;0.634709;0.638977;0.642399;0.647622;0.651485;0.657584;0.658865;0.664482;0.666428;0.671882;0.680068;0.684122;0.681670;0.692178;0.692736;0.698256;0.703904;0.709506;0.713108;0.714610;0.720599;0.723867;0.731668;0.731806;0.741670;0.740535;0.748427;0.748402;0.752080;0.753882;0.762852;0.765353;0.763282;0.770178;0.779022;0.777554;0.779585;0.785458;0.789816;0.796366;0.791467;0.794537;0.801998;0.799252;0.801899;0.802329;0.808030;0.805849;0.806037;0.804214;0.807869;0.809544;0.807817;0.808779;0.806696;0.803004;0.804285;0.806324;0.802733;0.803187;0.798386;0.801528;0.796206;0.790747;0.790969;0.785782;0.786765;0.781684;0.778000;0.774448;0.775126;0.768832;0.768733;0.763003;0.755476;0.755822;0.750554;0.748144;0.745830;0.736925;0.733115;0.732410;0.724445;0.724192;0.717001;0.720912;0.712906;0.708898;0.705276;0.700472;0.694863;0.692132;0.685760;0.687132;0.678446;0.675561;0.670948;0.668495;0.660554;0.660383;0.656698;0.651174;0.649774;0.645469;0.638721;0.637999;0.634098;0.634726;0.624131;0.622207;0.616853;0.617693;0.614181;0.608460;0.606819;0.600117;0.597606;0.595705;0.594498;0.591031;0.585952;0.585638;0.577868;0.575259;0.574039;0.571664;0.566820;0.569086;0.565714;0.565085;0.560869;0.561340;0.560512;0.553448;0.550658;0.547601;0.547061;0.544009;0.542332;0.544558;0.539551;0.538431;0.537439;0.534266;0.533602;0.535102;0.534532;0.530601;0.530277;0.528196;0.525815;0.523660;0.524114;0.520586;0.521307;0.517440;0.515351;0.517681;0.512409;0.515453;0.519954;0.516224;0.514398;0.512346;0.513555;0.510861;0.506477;0.508405;0.509783;0.507965;0.510040
0.552297;0.558638;0.560606;0.567953;0.567984;0.573550;0.577160;0.579169;0.580589;0.591338;0.594946;0.598716;0.606281;0.605741;0.612281;0.616703;0.623180;0.629945;0.633784;0.637116;0.642060;0.648497;0.654896;0.655324;0.663657;0.666165;0.667264;0.671966;0.674704;0.680878;0.685532;0.683912;0.692549;0.690163;0.691670;0.694241;0.699219;0.698827;0.696058;0.702692;0.703504;0.697233;0.698093;0.698729;0.701369;0.701127;0.699989;0.696206;0.694506;0.694423;0.689396;0.692069;0.685181;0.682004;0.680800;0.677269;0.674651;0.669678;0.667689;0.667299;0.658885;0.652307;0.654211;0.649448;0.643742;0.639487;0.633162;0.629064;0.626631;0.619767;0.620010;0.614609;0.612968;0.609343;0.601607;0.599117;0.599588;0.594344;0.590589;0.586368;0.583541;0.583506;0.574450;0.577603;0.572940;0.564426;0.567337;0.566329;0.562247;0.560513;0.558251;0.561807;0.553681;0.555372;0.549540;0.548198;0.557648;0.553196;0.549359;0.555762;0.545528;0.552892;0.547586;0.555256;0.552979;0.554812;0.557619;0.556755;0.557776;0.561007;0.564493;0.568244;0.564945;0.571138;0.579844;0.573728;0.578584;0.581671;0.591889;0.595813;0.593519;0.602952;0.604769;0.605292;0.613097;0.618486;0.624168;0.625955;0.632538;0.637833;0.644938;0.654193;0.657193;0.661538;0.668545;0.674947;0.683721;0.688492;0.690699;0.699017;0.698031;0.703346;0.715111;0.722378;0.725385;0.729174;0.735845;0.740064;0.743454;0.751802;0.751411;0.756670;0.759098;0.755375;0.761997;0.762584;0.762194;0.766898;0.766174;0.766051;0.760459;0.764838;0.760447;0.761208;0.761004;0.757807;0.755097;0.753925;0.747815;0.747707;0.736118;0.733986;0.730318;0.727154;0.719295;0.712329;0.708374;0.700246;0.696378;0.693241;0.682224;0.676819;0.667780;0.665262;0.661573;0.652966;0.649469;0.640000;0.630024;0.624620;0.619415;0.612144;0.604071;0.600424;0.592028;0.588925;0.587821;0.581046;0.573988;0.569979
0.528120;0.529523;0.531433;0.530046;0.534646;0.540166;0.541120;0.550075;0.551333;0.550014;0.548866;0.558188;0.558110;0.558893;0.561944;0.570022;0.567203;0.569592;0.574914;0.575468;0.582534;0.584070;0.586406;0.588500;0.586140;0.593052;0.598258;0.597167;0.603578;0.606583;0.607703;0.606787;0.610221;0.607928;0.616489;0.613022;0.613986;0.617426;0.621858;0.617268;0.620675;0.623232;0.621945;0.628330;0.625501;0.623398;0.626414;0.627626;0.626595;0.627872;0.622450;0.629282;0.627489;0.629536;0.625355;0.629464;0.622211;0.630929;0.629492;0.623791;0.626373;0.626030;0.627681;0.625937;0.630545;0.629192;0.630430;0.631333;0.632996;0.633284;0.631787;0.638748;0.635181;0.637228;0.641966;0.646229;0.645210;0.644283;0.645835;0.646787;0.660463;0.657808;0.659994;0.664301;0.674603;0.673749;0.676477;0.679654;0.681650;0.688602;0.695162;0.704518;0.701019;0.708501;0.715483;0.717360;0.723946;0.728448;0.730604;0.740256;0.745053;0.747137;0.753521;0.759317;0.763927;0.772718;0.776114;0.774682;0.779358;0.780133;0.788282;0.796655;0.794859;0.797983;0.794475;0.799967;0.809617;0.802559;0.809053;0.805508;0.803994;0.809797;0.810170;0.803471;0.805497;0.800455;0.800137;0.803868;0.797545;0.794413;0.795844;0.789210;0.785505;0.782376;0.780574;0.774735;0.770285;0.763997;0.762871;0.757661;0.749155;0.747760;0.746237;0.736516;0.725043;0.724355;0.720412;0.717586;0.708247;0.707098;0.702258;0.696203;0.687413;0.683873;0.676091;0.674866;0.666222;0.667101;0.657467;0.651486;0.648001;0.650518;0.636384;0.635301;0.629325;0.625044;0.622206;0.617699;0.618768;0.612500;0.604643;0.597508;0.595018;0.592347;0.590775;0.580767;0.580551;0.579327;0.569906;0.570978;0.567202;0.563526;0.563097;0.560449;0.559046;0.553809;0.548822;0.544835;0.548588;0.546512;0.538260;0.536072;0.536907;0.534106;0.532255;0.531678;0.527346;0.525377;0.524127;0.527199
0.539012;0.539787;0.542507;0.544113;0.546045;0.545186;0.551202;0.557152;0.555828;0.559336;0.568579;0.569138;0.567486;0.572667;0.580473;0.583744;0.586358;0.587932;0.591094;0.598791;0.598605;0.605570;0.605153;0.611758;0.612588;0.616615;0.618603;0.621163;0.626515;0.633877;0.634675;0.636923;0.635912;0.639779;0.645010;0.645413;0.649623;0.651351;0.653759;0.653002;0.657174;0.657959;0.661512;0.660839;0.661294;0.661751;0.658110;0.665122;0.662343;0.671922;0.665470;0.665918;0.668725;0.668188;0.663634;0.670985;0.667098;0.667105;0.668456;0.669064;0.671410;0.670620;0.672293;0.673836;0.673016;0.674657;0.677041;0.670411;0.674376;0.671783;0.679400;0.675452;0.678626;0.681722;0.681616;0.680508;0.680920;0.683183;0.684398;0.688132;0.689914;0.693077;0.690915;0.693528;0.695837;0.694609;0.702764;0.705251;0.705425;0.707746;0.707999;0.713883;0.710894;0.718916;0.723973;0.730717;0.730412;0.731537;0.732039;0.737399;0.740492;0.743763;0.745012;0.744928;0.748183;0.751042;0.755395;0.751343;0.756954;0.761467;0.756639;0.758409;0.760444;0.764583;0.763019;0.770031;0.765478;0.764358;0.764708;0.761603;0.763747;0.763646;0.763556;0.760188;0.756272;0.754536;0.751952;0.752793;0.751719;0.744826;0.740504;0.736473;0.734641;0.733585;0.728280;0.728019;0.716901;0.718447;0.712705;0.707820;0.706595;0.700584;0.696819;0.689533;0.687307;0.680368;0.671344;0.670024;0.666864;0.665727;0.661954;0.651201;0.645306;0.641644;0.636769;0.633399;0.630818;0.625764;0.623081;0.614608;0.617234;0.606571;0.606296;0.602448;0.592607;0.594625;0.594165;0.584270;0.584428;0.579513;0.579807;0.573699;0.570002;0.566442;0.568012;0.566462;0.557517;0.556270;0.552037;0.556779;0.548243;0.545838;0.540287;0.540766;0.538088;0.540119;0.534571;0.534576;0.531417;0.527497;0.530351;0.530243;0.529147;0.521755;0.520664;0.520659;0.513183;0.518932;0.513929;0.515301
0.542034;0.547436;0.553334;0.553318;0.555883;0.562919;0.568646;0.570804;0.574206;0.572336;0.577620;0.583053;0.591874;0.596110;0.593835;0.601476;0.603504;0.608211;0.612108;0.615027;0.618624;0.631414;0.630409;0.635636;0.643204;0.644823;0.646824;0.653038;0.652870;0.660446;0.667461;0.666370;0.666243;0.672700;0.677747;0.677976;0.683966;0.685744;0.689963;0.691133;0.693046;0.692640;0.701773;0.697684;0.702798;0.707731;0.708371;0.704545;0.707118;0.709338;0.710453;0.713848;0.710787;0.713289;0.715459;0.710866;0.712345;0.714105;0.714663;0.709391;0.708338;0.709383;0.712778;0.712645;0.706199;0.706971;0.707228;0.712519;0.705922;0.705561;0.703905;0.702456;0.702279;0.707353;0.703297;0.705428;0.700245;0.692427;0.693905;0.690838;0.695154;0.695121;0.693811;0.687697;0.688933;0.684193;0.678802;0.690644;0.680076;0.682455;0.675953;0.679916;0.675942;0.674996;0.670469;0.667315;0.670882;0.670503;0.667103;0.659088;0.662486;0.663390;0.661001;0.658409;0.652061;0.657606;0.652179;0.657301;0.652681;0.652495;0.652750;0.654369;0.652581;0.651506;0.654619;0.649185;0.650321;0.646961;0.649669;0.650436;0.650074;0.648809;0.649102;0.651026;0.646650;0.651409;0.648540;0.646246;0.654554;0.650092;0.650667;0.653497;0.656668;0.656404;0.655529;0.656023;0.658057;0.657154;0.658107;0.660158;0.662975;0.658971;0.661961;0.659136;0.659113;0.665599;0.661661;0.662977;0.661824;0.661933;0.660443;0.665109;0.659657;0.665502;0.658474;0.658463;0.654256;0.657344;0.657815;0.653552;0.649024;0.649606;0.653380;0.645356;0.648029;0.643204;0.641555;0.638337;0.636888;0.631509;0.628547;0.628084;0.625360;0.619233;0.614411;0.610871;0.606750;0.610634;0.599565;0.602383;0.594828;0.592429;0.591599;0.585057;0.582578;0.581125;0.574151;0.572420;0.568697;0.564089;0.562575;0.551698;0.557341;0.547582;0.547621;0.543394;0.541393;0.539764;0.530926;0.536388
0.570454;0.574102;0.580841;0.589165;0.589247;0.593887;0.602540;0.608989;0.614617;0.619468;0.629456;0.634210;0.642950;0.645145;0.654724;0.660955;0.665929;0.671310;0.677348;0.686269;0.693348;0.698354;0.702508;0.708919;0.714882;0.723030;0.723519;0.729359;0.736613;0.739112;0.746091;0.743911;0.751887;0.756105;0.757066;0.762648;0.759104;0.764906;0.762954;0.765033;0.769003;0.769130;0.773313;0.771354;0.765256;0.767614;0.766766;0.762457;0.759628;0.762589;0.752034;0.752203;0.746741;0.745255;0.740318;0.732079;0.729536;0.724762;0.721553;0.713361;0.710528;0.705758;0.701201;0.697901;0.691363;0.689676;0.678993;0.674157;0.668939;0.664322;0.663737;0.657309;0.646597;0.648661;0.641396;0.637604;0.636623;0.631837;0.630347;0.626748;0.621066;0.621820;0.616012;0.615672;0.607393;0.611706;0.609247;0.607989;0.608681;0.605185;0.609697;0.606525;0.605018;0.604918;0.601290;0.603900;0.607380;0.604879;0.605921;0.609425;0.607996;0.607236;0.611804;0.607574;0.613469;0.614190;0.615438;0.614796;0.618917;0.621044;0.620230;0.625920;0.624618;0.627479;0.624589;0.633236;0.628271;0.634488;0.632478;0.638401;0.633416;0.641118;0.638849;0.641270;0.643623;0.639261;0.644005;0.646460;0.649507;0.647597;0.650237;0.653788;0.652560;0.654143;0.652200;0.654378;0.654230;0.653529;0.654714;0.660401;0.657476;0.653946;0.663719;0.655412;0.659061;0.658815;0.653706;0.656393;0.656169;0.657266;0.654616;0.651272;0.657382;0.656312;0.654192;0.649897;0.649577;0.644889;0.645514;0.647535;0.646479;0.639304;0.639894;0.642817;0.637343;0.629290;0.630081;0.622623;0.623632;0.620813;0.620706;0.616596;0.619970;0.607149;0.611033;0.605190;0.599323;0.598820;0.592190;0.590561;0.592466;0.584139;0.579229;0.579885;0.575308;0.571771;0.568505;0.564709;0.561427;0.561158;0.554929;0.550839;0.548395;0.550303;0.544387;0.540195;0.542825;0.537348;0.537283;0.537875
0.536014;0.533221;0.535111;0.535002;0.539280;0.544880;0.546119;0.543962;0.550355;0.554053;0.559296;0.564272;0.570270;0.568845;0.572066;0.573749;0.582135;0.582703;0.590774;0.594799;0.596979;0.600182;0.605755;0.609169;0.616410;0.617727;0.620965;0.629673;0.631735;0.640780;0.642404;0.653377;0.654526;0.662800;0.665175;0.669697;0.671511;0.682432;0.690079;0.699644;0.701729;0.706191;0.710216;0.718704;0.723171;0.730866;0.738780;0.742020;0.746873;0.759434;0.761646;0.770657;0.779008;0.782151;0.789463;0.794733;0.802340;0.810239;0.810126;0.816236;0.822736;0.830662;0.829995;0.836238;0.841607;0.848567;0.851670;0.853002;0.860746;0.866288;0.864411;0.870282;0.870308;0.872328;0.873873;0.876376;0.876757;0.878698;0.878894;0.875664;0.876872;0.871205;0.872561;0.872249;0.869367;0.866022;0.862584;0.860202;0.859183;0.850788;0.850127;0.838049;0.842446;0.830030;0.827255;0.823441;0.813370;0.808205;0.804414;0.798286;0.786267;0.781416;0.774898;0.767345;0.767243;0.754862;0.745502;0.737276;0.731379;0.726455;0.717636;0.712697;0.702323;0.698138;0.689174;0.682469;0.678821;0.673604;0.663245;0.658060;0.656620;0.645500;0.637721;0.638709;0.630960;0.627705;0.620729;0.614497;0.616038;0.606351;0.607352;0.600082;0.593795;0.587934;0.582782;0.583401;0.583310;0.574822;0.573561;0.563530;0.569828;0.565231;0.557769;0.558365;0.556384;0.552218;0.555554;0.551146;0.544966;0.542703;0.543516;0.549204;0.534342;0.535146;0.532511;0.532165;0.532701;0.530975;0.526020;0.528816;0.520770;0.522695;0.522849;0.527413;0.524006;0.520217;0.520826;0.517597;0.515101;0.521300;0.512945;0.513639;0.510596;0.516941;0.512930;0.515234;0.513329;0.513040;0.505751;0.513606;0.508248;0.506265;0.504031;0.510497;0.509772;0.511733;0.509154;0.504457;0.502941;0.505319;0.511802;0.504135;0.505114;0.504199;0.508356;0.511026;0.505365;0.503328;0.504327;0.499863
0.544779;0.553853;0.548763;0.554312;0.553028;0.566701;0.574156;0.575216;0.575827;0.580903;0.583221;0.584766;0.589967;0.598051;0.598340;0.606490;0.606424;0.614972;0.620216;0.628360;0.628323;0.637590;0.636719;0.648979;0.648889;0.653700;0.655162;0.665686;0.672006;0.675611;0.683290;0.682138;0.691171;0.695669;0.702792;0.703862;0.708090;0.712209;0.716508;0.722844;0.730607;0.732209;0.734932;0.744212;0.748269;0.742670;0.749589;0.750886;0.754050;0.759508;0.761795;0.768220;0.769577;0.769746;0.780836;0.777892;0.775368;0.777512;0.786253;0.785706;0.789125;0.791663;0.792019;0.791106;0.793495;0.795994;0.791476;0.793275;0.794246;0.795613;0.798481;0.798022;0.792996;0.792581;0.791188;0.791185;0.790045;0.788597;0.787310;0.785370;0.785064;0.780123;0.778705;0.774334;0.772012;0.765208;0.760125;0.760017;0.751872;0.744341;0.745758;0.740537;0.732600;0.736347;0.725099;0.717743;0.713288;0.712966;0.704122;0.692414;0.695932;0.685495;0.680320;0.671884;0.668908;0.664922;0.654774;0.649281;0.647474;0.644568;0.636548;0.636579;0.625189;0.626507;0.618201;0.618073;0.613674;0.613766;0.611325;0.611631;0.605701;0.600123;0.597366;0.594324;0.596359;0.597414;0.593842;0.592373;0.588032;0.593572;0.592077;0.594382;0.590649;0.594717;0.589781;0.597069;0.592593;0.594822;0.596407;0.595837;0.595345;0.595461;0.601556;0.602703;0.602181;0.604616;0.606281;0.603835;0.604962;0.604342;0.606368;0.607443;0.607494;0.609557;0.609929;0.610597;0.608991;0.606342;0.611833;0.611462;0.611329;0.604715;0.606249;0.613728;0.604661;0.609430;0.605627;0.604359;0.599639;0.604442;0.605024;0.597787;0.596863;0.595442;0.587710;0.588506;0.588205;0.585263;0.585634;0.578945;0.577223;0.578139;0.572503;0.573483;0.571139;0.568576;0.562839;0.562732;0.563970;0.562272;0.555671;0.553095;0.545112;0.547605;0.544534;0.550395;0.543882;0.538593;0.542000;0.536811
0.543703;0.546515;0.555233;0.554765;0.560812;0.561814;0.565428;0.574776;0.575620;0.578910;0.583264;0.586818;0.589467;0.593139;0.598558;0.602675;0.609075;0.608594;0.625933;0.629361;0.632144;0.631642;0.640864;0.642731;0.648565;0.653516;0.663744;0.663856;0.669339;0.678417;0.677099;0.685339;0.690579;0.692118;0.699644;0.701504;0.714647;0.715368;0.716539;0.727924;0.732390;0.730320;0.739404;0.742337;0.749561;0.752865;0.757474;0.758902;0.769388;0.767185;0.770844;0.774417;0.778422;0.781705;0.786274;0.787083;0.794101;0.799710;0.795997;0.800491;0.802811;0.803280;0.810706;0.811516;0.814810;0.818475;0.812953;0.816069;0.813237;0.819179;0.819061;0.821081;0.822655;0.820155;0.815592;0.817601;0.814712;0.814917;0.814374;0.818024;0.812129;0.806532;0.803540;0.804066;0.802113;0.795345;0.791818;0.789782;0.784859;0.785197;0.774751;0.774242;0.770250;0.762564;0.759395;0.747673;0.743976;0.740455;0.729759;0.729224;0.726148;0.719873;0.716495;0.709353;0.704891;0.694978;0.689844;0.684187;0.676889;0.674237;0.668873;0.661502;0.656654;0.657045;0.651102;0.644487;0.643701;0.634089;0.632391;0.628541;0.624336;0.621830;0.617046;0.613529;0.610549;0.606208;0.599429;0.599972;0.593685;0.596444;0.589860;0.596407;0.591188;0.590884;0.584333;0.583031;0.584179;0.578457;0.577229;0.577627;0.577831;0.570836;0.569532;0.571695;0.569557;0.571855;0.569136;0.570043;0.566918;0.564663;0.563806;0.565398;0.560386;0.561994;0.558506;0.562610;0.562015;0.559013;0.557470;0.549960;0.556430;0.549682;0.553554;0.553111;0.556408;0.546289;0.550033;0.548065;0.551361;0.549861;0.543498;0.544556;0.546844;0.541688;0.540285;0.539484;0.536265;0.533078;0.534191;0.534990;0.531095;0.530129;0.528628;0.527796;0.523489;0.529958;0.523740;0.528018;0.520111;0.526374;0.521069;0.515141;0.520095;0.518796;0.518619;0.511821;0.518116;0.515633;0.516307;0.513977
0.545233;0.551372;0.550442;0.553470;0.558763;0.556879;0.562897;0.567081;0.571553;0.568952;0.576704;0.582429;0.581569;0.591859;0.589892;0.595208;0.599779;0.602835;0.607669;0.609047;0.617894;0.617948;0.622801;0.626184;0.626720;0.630423;0.635083;0.641309;0.640492;0.641453;0.648760;0.651409;0.652768;0.651896;0.655513;0.658325;0.662520;0.658673;0.660363;0.660334;0.660776;0.666591;0.662818;0.666439;0.660668;0.661911;0.656811;0.655941;0.655547;0.656403;0.651953;0.653135;0.648043;0.649431;0.650082;0.641498;0.642999;0.634582;0.632823;0.630662;0.630516;0.625270;0.618246;0.621238;0.617773;0.613384;0.608343;0.609495;0.608896;0.603164;0.600503;0.597088;0.592845;0.593005;0.588803;0.586268;0.587089;0.576668;0.576358;0.573832;0.578841;0.568889;0.572523;0.569625;0.570766;0.566088;0.560991;0.561580;0.558303;0.559279;0.558019;0.561097;0.559835;0.561383;0.562180;0.562305;0.561788;0.561718;0.561680;0.558576;0.562800;0.562666;0.570609;0.566007;0.574587;0.569688;0.575371;0.577436;0.579930;0.580104;0.585238;0.588950;0.590648;0.596676;0.599727;0.605717;0.604484;0.608806;0.615714;0.613567;0.622841;0.626073;0.627112;0.637378;0.645916;0.644089;0.656996;0.657505;0.669980;0.668361;0.676503;0.686436;0.694377;0.701127;0.704927;0.708031;0.716386;0.721979;0.727632;0.735698;0.741308;0.750016;0.754613;0.757541;0.764006;0.766508;0.770801;0.774926;0.782369;0.786434;0.785188;0.791681;0.793848;0.797450;0.795040;0.805904;0.804800;0.798815;0.802939;0.803399;0.799695;0.804144;0.797109;0.793254;0.790705;0.792118;0.788452;0.783001;0.775935;0.776443;0.765895;0.763984;0.763086;0.747718;0.743973;0.741716;0.738011;0.731356;0.723097;0.712579;0.703380;0.698247;0.695339;0.687439;0.680800;0.670123;0.667503;0.658812;0.652230;0.644925;0.639167;0.629819;0.620165;0.621964;0.612225;0.600294;0.597500;0.591961;0.590260;0.578682
0.532420;0.535328;0.544511;0.546486;0.545722;0.548847;0.552206;0.552548;0.555999;0.565006;0.564372;0.564315;0.573199;0.572262;0.579043;0.579047;0.586381;0.589602;0.585605;0.590535;0.593458;0.599149;0.602488;0.602674;0.607973;0.609605;0.614950;0.613620;0.618238;0.624031;0.616953;0.623998;0.625057;0.627521;0.629466;0.629966;0.632809;0.630373;0.634163;0.632248;0.637333;0.637210;0.635876;0.635624;0.635653;0.635819;0.634957;0.635101;0.631161;0.636899;0.636943;0.635245;0.629559;0.627075;0.625564;0.624382;0.626115;0.627478;0.620976;0.622766;0.622386;0.613765;0.613830;0.614631;0.617645;0.615082;0.614258;0.609627;0.613742;0.608368;0.608017;0.611298;0.608500;0.606750;0.612865;0.614786;0.610518;0.612782;0.612352;0.611141;0.619199;0.622571;0.614245;0.620445;0.627116;0.620922;0.629244;0.625871;0.634018;0.630972;0.638509;0.643965;0.645230;0.651720;0.652723;0.658012;0.664462;0.664017;0.668215;0.675217;0.680833;0.686107;0.682664;0.691271;0.696246;0.699537;0.699698;0.708486;0.711785;0.715356;0.725174;0.722827;0.732097;0.728872;0.737297;0.737957;0.746394;0.744964;0.745819;0.744790;0.752485;0.754469;0.755523;0.757087;0.758513;0.760390;0.760077;0.760391;0.757711;0.760963;0.765792;0.763453;0.758278;0.761627;0.761247;0.759620;0.761786;0.762702;0.758878;0.758672;0.756164;0.758252;0.755654;0.753596;0.754452;0.753202;0.746349;0.746955;0.747704;0.744101;0.740903;0.740453;0.737456;0.733487;0.726966;0.724650;0.722515;0.724041;0.716819;0.712211;0.710916;0.708927;0.698803;0.699129;0.694267;0.688999;0.688988;0.679405;0.681015;0.673363;0.668302;0.663597;0.662581;0.654966;0.648381;0.651279;0.640866;0.637049;0.629374;0.630071;0.626271;0.619283;0.611754;0.608431;0.606142;0.600869;0.597207;0.587822;0.587778;0.581085;0.576790;0.578847;0.570995;0.569071;0.570267;0.562001;0.558561;0.560192;0.555004;0.545699
0.516304;0.516705;0.518854;0.522291;0.522464;0.519018;0.524074;0.526557;0.531408;0.528734;0.532363;0.535169;0.535201;0.542013;0.541017;0.545263;0.543074;0.547968;0.554411;0.556859;0.556185;0.558120;0.562838;0.565843;0.568418;0.572034;0.576123;0.579991;0.581995;0.588731;0.588705;0.596037;0.597606;0.602893;0.602838;0.604319;0.611285;0.614140;0.621322;0.626508;0.637485;0.635815;0.646109;0.648010;0.652613;0.659677;0.662518;0.670173;0.677645;0.680249;0.684941;0.693944;0.696746;0.700020;0.712789;0.714796;0.718681;0.728704;0.731048;0.738662;0.741925;0.749279;0.750917;0.754585;0.767015;0.766766;0.767286;0.780419;0.779062;0.786014;0.790728;0.795909;0.800502;0.797862;0.805036;0.807120;0.804628;0.811240;0.813544;0.813700;0.811897;0.814064;0.808428;0.812092;0.817862;0.814620;0.813455;0.807324;0.810041;0.810121;0.805309;0.798946;0.800384;0.795982;0.794596;0.789836;0.790713;0.785548;0.781405;0.779675;0.770902;0.768594;0.761503;0.756864;0.751945;0.752084;0.746441;0.741724;0.736935;0.735704;0.731378;0.724187;0.723767;0.719593;0.707681;0.704532;0.706861;0.704315;0.697795;0.696159;0.693087;0.688176;0.682742;0.679509;0.676746;0.675016;0.669820;0.665979;0.660164;0.657650;0.663654;0.658278;0.652481;0.654531;0.649346;0.644251;0.640692;0.640263;0.638911;0.635825;0.629917;0.629220;0.631881;0.621556;0.625711;0.619456;0.625968;0.620905;0.614447;0.615040;0.610317;0.610885;0.608606;0.607745;0.607014;0.602243;0.601030;0.598453;0.593710;0.593973;0.592093;0.588545;0.587332;0.587291;0.585576;0.585824;0.576538;0.579652;0.574715;0.574641;0.568092;0.567977;0.567341;0.563158;0.559577;0.557364;0.553979;0.554564;0.550807;0.551551;0.545309;0.545901;0.542959;0.537462;0.536388;0.537353;0.530536;0.528568;0.527671;0.527023;0.525314;0.520346;0.527082;0.519582;0.519764;0.520276;0.520638;0.510063;0.511109;0.511805
0.502342;0.497532;0.505605;0.502751;0.504695;0.501424;0.500857;0.503776;0.502604;0.500468;0.502143;0.503444;0.501018;0.504093;0.506240;0.499542;0.499480;0.504550;0.500323;0.499076;0.502616;0.502836;0.504965;0.502599;0.502372;0.505721;0.500206;0.499281;0.504168;0.504057;0.501010;0.506473;0.500741;0.508214;0.503085;0.505743;0.508302;0.507581;0.512577;0.509718;0.510738;0.508671;0.509309;0.508392;0.508019;0.516506;0.512088;0.513097;0.512086;0.517988;0.516212;0.521644;0.519217;0.517968;0.524760;0.523891;0.527892;0.525121;0.527307;0.529572;0.534110;0.540442;0.539751;0.545437;0.549390;0.548896;0.553545;0.558496;0.560748;0.562137;0.569443;0.575158;0.581611;0.586744;0.587151;0.593124;0.603681;0.610550;0.616192;0.626363;0.627385;0.640220;0.644212;0.655928;0.660353;0.667628;0.674292;0.681426;0.693851;0.704049;0.716245;0.724105;0.736140;0.745281;0.754369;0.756704;0.771886;0.781583;0.791097;0.800960;0.810882;0.819922;0.828454;0.838375;0.850563;0.855216;0.864902;0.874761;0.882224;0.887464;0.891387;0.898550;0.905305;0.906153;0.912210;0.920042;0.921487;0.927466;0.925166;0.926093;0.926742;0.929184;0.927643;0.924372;0.925105;0.925615;0.921580;0.917595;0.916264;0.915173;0.908205;0.900626;0.894974;0.892028;0.882409;0.881175;0.869859;0.862366;0.854112;0.849367;0.840791;0.830836;0.822593;0.817016;0.805459;0.798873;0.787165;0.780257;0.774582;0.764665;0.758927;0.753055;0.740433;0.732785;0.725846;0.713711;0.705594;0.699355;0.689288;0.681637;0.679761;0.667771;0.667183;0.658154;0.649615;0.642882;0.643490;0.632340;0.628136;0.620397;0.613209;0.607831;0.603413;0.598717;0.592745;0.589465;0.588044;0.584173;0.579534;0.570832;0.570238;0.562417;0.557479;0.558835;0.552246;0.548558;0.545092;0.543777;0.539451;0.538851;0.534291;0.532410;0.529116;0.530027;0.529098;0.521614;0.526333;0.523146;0.517179;0.514714
0.514761;0.521014;0.518445;0.517642;0.518676;0.521852;0.522189;0.525255;0.525898;0.526489;0.529091;0.529740;0.536239;0.533517;0.534310;0.535612;0.535187;0.537870;0.537975;0.538534;0.546533;0.549078;0.545665;0.550980;0.549934;0.548757;0.555529;0.557777;0.558769;0.560081;0.564765;0.566646;0.566437;0.566557;0.567852;0.576417;0.576584;0.576190;0.579039;0.580892;0.582340;0.589647;0.587830;0.589784;0.593897;0.595694;0.600933;0.592423;0.602252;0.600470;0.604665;0.604311;0.606890;0.610436;0.609994;0.616191;0.613421;0.619454;0.615458;0.618143;0.625052;0.628554;0.623092;0.624385;0.626997;0.630734;0.632221;0.635304;0.634036;0.636090;0.633429;0.635608;0.635076;0.635924;0.634594;0.637123;0.635296;0.636936;0.634119;0.639074;0.636788;0.636351;0.637993;0.642728;0.636013;0.635366;0.640283;0.637670;0.635462;0.632423;0.632407;0.632203;0.628533;0.633035;0.629816;0.625772;0.624928;0.626263;0.626841;0.625660;0.627851;0.627427;0.621834;0.625056;0.628218;0.622368;0.622859;0.626598;0.627406;0.626308;0.623617;0.626226;0.631502;0.631706;0.629931;0.634784;0.635064;0.641879;0.644599;0.641787;0.648087;0.653939;0.653350;0.660992;0.668942;0.668800;0.671515;0.678112;0.688535;0.686528;0.690367;0.703143;0.700156;0.715418;0.719803;0.719580;0.731874;0.728058;0.738866;0.743348;0.748621;0.757730;0.761579;0.765057;0.777398;0.778159;0.784695;0.786677;0.789415;0.791313;0.799043;0.800976;0.803408;0.802990;0.808278;0.809180;0.810516;0.809373;0.808677;0.808644;0.810117;0.805226;0.803315;0.804744;0.802501;0.800754;0.794229;0.793327;0.785923;0.783864;0.773913;0.770035;0.769172;0.757676;0.751280;0.746312;0.744284;0.730807;0.729930;0.714722;0.717806;0.704829;0.701437;0.691666;0.679734;0.677062;0.669734;0.657041;0.653973;0.644968;0.632370;0.635234;0.625226;0.622287;0.609869;0.605739;0.594674;0.593165;0.586241;0.583417
0.582432;0.591011;0.595112;0.599973;0.606619;0.609664;0.617901;0.623548;0.631112;0.636941;0.646871;0.652217;0.663319;0.668849;0.674804;0.689674;0.694162;0.696496;0.709530;0.712878;0.715375;0.728920;0.734398;0.743089;0.754822;0.755327;0.763725;0.767449;0.776598;0.783515;0.788145;0.795141;0.798110;0.803473;0.806617;0.811020;0.815598;0.819960;0.815767;0.819485;0.826104;0.829480;0.827949;0.826937;0.826129;0.826510;0.825093;0.829925;0.830382;0.825907;0.821736;0.819517;0.823788;0.815204;0.811403;0.808967;0.805808;0.805230;0.802752;0.796980;0.787476;0.786389;0.783074;0.778320;0.779765;0.767061;0.762461;0.761394;0.757051;0.750041;0.750051;0.744211;0.737400;0.737020;0.726937;0.725291;0.721523;0.717089;0.714575;0.709822;0.706016;0.701439;0.695027;0.691921;0.687605;0.684882;0.681353;0.680065;0.675220;0.675410;0.674384;0.670791;0.666317;0.664535;0.661573;0.656642;0.653686;0.657423;0.651341;0.646586;0.647388;0.647226;0.646321;0.640053;0.640435;0.636624;0.641855;0.635270;0.632655;0.631178;0.634361;0.632268;0.626970;0.623282;0.622631;0.622933;0.619503;0.614839;0.614696;0.616373;0.613411;0.609727;0.609535;0.607739;0.604319;0.600196;0.606200;0.599373;0.595170;0.591297;0.596947;0.594393;0.587825;0.586249;0.587611;0.585879;0.584843;0.581174;0.580623;0.577078;0.578159;0.570125;0.569291;0.569131;0.570523;0.562252;0.561469;0.559672;0.561257;0.557937;0.557789;0.552707;0.554818;0.549001;0.547869;0.550580;0.545402;0.544326;0.543959;0.536705;0.539374;0.535162;0.538497;0.537782;0.535040;0.534510;0.528146;0.534623;0.531746;0.525530;0.523071;0.528588;0.522907;0.522408;0.520859;0.525309;0.522107;0.517555;0.520072;0.517210;0.516868;0.514517;0.514030;0.509130;0.514169;0.516206;0.513414;0.513405;0.507818;0.509960;0.509187;0.510084;0.505126;0.500945;0.503249;0.502632;0.505128;0.503184;0.503292;0.504725
0.501572;0.505058;0.504068;0.506368;0.506920;0.505280;0.505868;0.506879;0.504282;0.506780;0.509013;0.506731;0.508519;0.506601;0.505218;0.509621;0.510386;0.509748;0.516446;0.510326;0.513295;0.515726;0.516780;0.514966;0.518733;0.518283;0.525518;0.525775;0.525948;0.526418;0.527996;0.529442;0.540257;0.538042;0.540248;0.541969;0.543601;0.549425;0.554907;0.554199;0.559525;0.567169;0.563671;0.572930;0.576376;0.580514;0.587185;0.592449;0.595069;0.600560;0.606549;0.611098;0.614580;0.621052;0.628415;0.631899;0.638945;0.644928;0.648575;0.653744;0.660091;0.667512;0.671674;0.677023;0.681449;0.690824;0.695454;0.702313;0.704669;0.707787;0.717951;0.720770;0.723978;0.731187;0.739994;0.737759;0.739308;0.749704;0.751825;0.754019;0.755783;0.759840;0.766780;0.766729;0.764963;0.776049;0.776569;0.782505;0.779219;0.780978;0.782339;0.788029;0.788382;0.792049;0.788729;0.788770;0.793779;0.792626;0.799345;0.795897;0.793514;0.792252;0.795423;0.794396;0.796508;0.795856;0.795224;0.795385;0.791691;0.792793;0.790887;0.789831;0.790025;0.792042;0.792020;0.788559;0.788093;0.784377;0.779155;0.779621;0.778599;0.776949;0.770683;0.771596;0.767488;0.768457;0.762158;0.762306;0.756224;0.751856;0.748542;0.750378;0.744848;0.736707;0.739204;0.736614;0.732752;0.728344;0.728610;0.717501;0.713308;0.715463;0.705585;0.704513;0.700951;0.698450;0.694725;0.689501;0.683750;0.682828;0.678933;0.673493;0.671681;0.663461;0.661489;0.659730;0.654615;0.650648;0.651246;0.642830;0.640633;0.640163;0.630033;0.629180;0.623769;0.624265;0.622405;0.611719;0.607601;0.608375;0.603154;0.598450;0.591827;0.592153;0.588667;0.586471;0.579515;0.580535;0.576979;0.570882;0.568799;0.568430;0.564631;0.557653;0.552142;0.552320;0.550385;0.546544;0.540263;0.538087;0.533032;0.534045;0.534967;0.528285;0.526482;0.525787;0.525862;0.523533;0.518336;0.517049
0.556624;0.559633;0.560520;0.564310;0.564905;0.574651;0.582844;0.577995;0.585847;0.590711;0.596000;0.596112;0.603088;0.618091;0.617470;0.621771;0.626463;0.630968;0.635058;0.642582;0.652478;0.650149;0.651291;0.665218;0.664761;0.670882;0.673308;0.680988;0.684204;0.691568;0.699556;0.701843;0.704832;0.710052;0.708068;0.711470;0.719865;0.721097;0.720291;0.724510;0.728850;0.722329;0.731147;0.731280;0.736156;0.738531;0.734896;0.738952;0.737861;0.739205;0.735835;0.734485;0.740312;0.736704;0.736463;0.734466;0.734973;0.737839;0.735236;0.730466;0.732032;0.734918;0.723665;0.726088;0.722065;0.723855;0.723759;0.720466;0.717678;0.718182;0.715509;0.708246;0.712056;0.704991;0.706071;0.701939;0.700019;0.700566;0.693226;0.692879;0.689295;0.691183;0.686604;0.684040;0.674464;0.673993;0.670892;0.672633;0.671659;0.672655;0.664990;0.662015;0.660859;0.657543;0.653432;0.652659;0.653826;0.647471;0.650435;0.641267;0.642635;0.638477;0.642584;0.634368;0.638011;0.632154;0.635529;0.629195;0.629255;0.626572;0.635640;0.625574;0.623048;0.623678;0.624572;0.626424;0.625940;0.621748;0.625191;0.628250;0.622531;0.626569;0.626204;0.622170;0.628940;0.622616;0.625836;0.625732;0.630806;0.633399;0.630596;0.629671;0.635350;0.635501;0.632344;0.635328;0.642693;0.642449;0.640690;0.642667;0.641109;0.643556;0.647438;0.648898;0.646339;0.653375;0.656417;0.652066;0.656292;0.656842;0.652865;0.653245;0.654529;0.654428;0.655001;0.659415;0.652591;0.655560;0.652644;0.655100;0.649698;0.651304;0.647523;0.647279;0.649307;0.641864;0.644531;0.641118;0.641533;0.635505;0.633804;0.630189;0.631756;0.623481;0.621150;0.620133;0.617784;0.608643;0.604321;0.605270;0.598716;0.597911;0.590172;0.589870;0.585006;0.583683;0.577096;0.577143;0.573763;0.567992;0.564973;0.561961;0.561180;0.551429;0.552529;0.548806;0.547578;0.541962;0.542149;0.539489
0.524314;0.531642;0.534719;0.530871;0.533737;0.533090;0.537814;0.539230;0.537123;0.542707;0.545381;0.550316;0.547871;0.558375;0.554036;0.558243;0.557721;0.564135;0.565885;0.573041;0.567635;0.571237;0.568409;0.575215;0.583338;0.580275;0.584296;0.581750;0.582037;0.592820;0.589141;0.591018;0.592733;0.600626;0.596619;0.601182;0.599971;0.606722;0.611710;0.602545;0.604216;0.599094;0.602265;0.608075;0.609844;0.611300;0.609602;0.610198;0.607734;0.613351;0.612667;0.614959;0.611224;0.611535;0.614603;0.615852;0.618160;0.613282;0.615892;0.614648;0.618754;0.620582;0.615243;0.614434;0.616042;0.621005;0.622123;0.620405;0.625755;0.626186;0.630964;0.631490;0.632569;0.637643;0.640077;0.641112;0.646119;0.650920;0.654171;0.652543;0.661125;0.666499;0.668695;0.672133;0.680000;0.683726;0.693315;0.693583;0.701367;0.709337;0.709624;0.722475;0.730543;0.729972;0.735263;0.743842;0.750634;0.754557;0.761939;0.769573;0.774670;0.783438;0.790524;0.797891;0.801559;0.805595;0.805489;0.812818;0.822980;0.823166;0.832400;0.829928;0.839187;0.833678;0.839214;0.840551;0.842088;0.846388;0.845527;0.844567;0.848922;0.845249;0.844665;0.846362;0.839953;0.839805;0.835300;0.829837;0.834545;0.823596;0.820600;0.813896;0.811722;0.804857;0.801457;0.796410;0.788142;0.778743;0.774384;0.765334;0.759703;0.751502;0.745375;0.733706;0.733098;0.719914;0.717469;0.710420;0.698022;0.690981;0.687753;0.672631;0.671370;0.665467;0.661473;0.650426;0.648071;0.643996;0.633716;0.633999;0.622247;0.620413;0.614692;0.602651;0.601833;0.596240;0.587637;0.582018;0.578974;0.579809;0.571355;0.573104;0.567942;0.562223;0.558660;0.553819;0.554584;0.550347;0.545999;0.550937;0.541457;0.536966;0.536459;0.534671;0.529286;0.531160;0.529532;0.528464;0.523113;0.519517;0.524997;0.519316;0.520366;0.518815;0.513896;0.516650;0.511081;0.505227;0.508970;0.509384
0.525708;0.530488;0.530595;0.535097;0.538958;0.539664;0.542094;0.546425;0.548314;0.547707;0.551149;0.551270;0.553653;0.560050;0.562921;0.567304;0.566122;0.570958;0.573274;0.574798;0.578834;0.580758;0.586207;0.588666;0.589422;0.591298;0.595147;0.591312;0.600843;0.598185;0.600516;0.606327;0.607523;0.607409;0.610771;0.613797;0.617234;0.611163;0.613247;0.617513;0.617038;0.620038;0.619536;0.619084;0.618439;0.622737;0.629405;0.622994;0.626260;0.623970;0.622761;0.626736;0.625853;0.622326;0.624630;0.621080;0.622473;0.619728;0.622795;0.621955;0.621360;0.622147;0.618672;0.619480;0.619774;0.617034;0.615001;0.617402;0.615712;0.614881;0.616800;0.614669;0.618700;0.611689;0.612422;0.617796;0.616192;0.613726;0.618515;0.617323;0.609898;0.617446;0.613813;0.616831;0.615647;0.617784;0.616387;0.618301;0.622091;0.617758;0.620048;0.620702;0.623543;0.623949;0.623977;0.626772;0.633800;0.627539;0.625755;0.632651;0.634668;0.635374;0.638536;0.635898;0.641088;0.641508;0.647146;0.647546;0.652298;0.655245;0.656330;0.659918;0.661194;0.662198;0.667038;0.667992;0.671115;0.675005;0.680885;0.686131;0.681837;0.687639;0.690293;0.694420;0.703069;0.702713;0.709051;0.714814;0.709681;0.716014;0.717936;0.727774;0.727705;0.736028;0.738501;0.739669;0.742722;0.747232;0.748772;0.755459;0.758187;0.761041;0.763806;0.767127;0.769445;0.772873;0.773377;0.772228;0.778634;0.782658;0.775684;0.781268;0.776110;0.781909;0.782553;0.777690;0.781251;0.777670;0.777234;0.777195;0.772766;0.768180;0.767500;0.763390;0.764213;0.763961;0.754449;0.754970;0.749230;0.742418;0.733281;0.737221;0.729964;0.719304;0.719263;0.711211;0.704795;0.699950;0.695109;0.687063;0.680467;0.676306;0.665390;0.666438;0.656231;0.652214;0.646102;0.641990;0.630476;0.623645;0.618842;0.612342;0.608192;0.599737;0.593882;0.588937;0.588008;0.583206;0.579295;0.571867
0.605835;0.610473;0.615865;0.626749;0.634750;0.640287;0.650436;0.657012;0.666479;0.676939;0.680333;0.696634;0.701749;0.710445;0.717411;0.731673;0.740090;0.748180;0.761926;0.771812;0.775035;0.788471;0.796610;0.807299;0.814162;0.822259;0.821030;0.835536;0.847817;0.854192;0.856845;0.863175;0.866102;0.875409;0.879068;0.883828;0.883795;0.888819;0.896243;0.893597;0.895164;0.897639;0.894431;0.896888;0.890632;0.894353;0.892278;0.889955;0.891717;0.886748;0.880176;0.876498;0.872568;0.867554;0.859846;0.857262;0.850159;0.840586;0.832603;0.828619;0.817937;0.814469;0.805137;0.801686;0.790040;0.784098;0.781449;0.771108;0.764726;0.753736;0.744119;0.737031;0.733871;0.722535;0.718080;0.711435;0.701670;0.697264;0.691384;0.684438;0.684616;0.671565;0.664431;0.656889;0.653529;0.646434;0.648675;0.632982;0.636595;0.629993;0.623456;0.617773;0.611975;0.611431;0.606318;0.601569;0.601270;0.594858;0.590711;0.589033;0.586670;0.585758;0.582202;0.578719;0.573456;0.571167;0.568684;0.561656;0.569545;0.566500;0.561474;0.561369;0.560530;0.560696;0.556596;0.556464;0.551898;0.557323;0.554040;0.550012;0.550831;0.545907;0.548005;0.550178;0.547737;0.544035;0.546203;0.546326;0.543101;0.545033;0.542255;0.543096;0.547100;0.538739;0.545261;0.541522;0.544309;0.549380;0.543391;0.543978;0.539411;0.538225;0.535778;0.544746;0.539347;0.540061;0.540334;0.539198;0.542690;0.542311;0.541579;0.539894;0.542318;0.541502;0.541560;0.541297;0.541401;0.542333;0.541142;0.531943;0.536758;0.540613;0.532881;0.534257;0.537721;0.535617;0.530807;0.534562;0.534245;0.531954;0.529195;0.530524;0.528385;0.530995;0.527618;0.527332;0.525697;0.526451;0.522787;0.520285;0.524887;0.518722;0.522811;0.518535;0.517569;0.521717;0.517694;0.515883;0.515238;0.515004;0.516375;0.513556;0.513781;0.506688;0.511386;0.506106;0.510476;0.506849;0.503997;0.504688
