1100;1105;1110;1115;1120;1125;1130;1135;1140;1145;1150;1155;1160;1165;1170;1175;1180;1185;1190;1195;1200;1205;1210;1215;1220;1225;1230;1235;1240;1245;1250;1255;1260;1265;1270;1275;1280;1285;1290;1295;1301;1306;1311;1316;1321;1326;1331;1336;1341;1346;1351;1356;1361;1366;1371;1376;1381;1386;1391;1396;1401;1406;1411;1416;1421;1426;1431;1436;1441;1446;1451;1456;1461;1466;1471;1476;1481;1486;1491;1496;1502;1507;1512;1517;1522;1527;1532;1537;1542;1547;1552;1557;1562;1567;1572;1577;1582;1587;1592;1597;1602;1607;1612;1617;1622;1627;1632;1637;1642;1647;1652;1657;1662;1667;1672;1677;1682;1687;1692;1697;1703;1708;1713;1718;1723;1728;1733;1738;1743;1748;1753;1758;1763;1768;1773;1778;1783;1788;1793;1798;1803;1808;1813;1818;1823;1828;1833;1838;1843;1848;1853;1858;1863;1868;1873;1878;1883;1888;1893;1898;1904;1909;1914;1919;1924;1929;1934;1939;1944;1949;1954;1959;1964;1969;1974;1979;1984;1989;1994;1999;2004;2009;2014;2019;2024;2029;2034;2039;2044;2049;2054;2059;2064;2069;2074;2079;2084;2089;2094;2100
-1.256919;-1.199099;-1.243056;-1.149638;-1.167756;-1.180078;-1.175938;-1.109922;-1.092987;-1.068312;-1.039022;-1.014238;-1.009885;-0.958451;-0.907247;-0.884471;-0.856878;-0.863842;-0.857811;-0.775242;-0.789901;-0.748994;-0.759037;-0.739785;-0.669946;-0.661691;-0.624816;-0.627512;-0.673888;-0.579745;-0.587173;-0.546746;-0.562470;-0.538501;-0.501077;-0.494141;-0.519786;-0.482255;-0.461172;-0.473451;-0.469327;-0.475084;-0.485926;-0.465090;-0.446496;-0.430448;-0.437583;-0.427486;-0.453501;-0.400827;-0.429018;-0.446694;-0.436813;-0.451282;-0.451475;-0.449754;-0.449803;-0.487210;-0.462731;-0.453514;-0.466340;-0.524405;-0.469416;-0.493880;-0.467593;-0.448985;-0.427159;-0.371174;-0.390784;-0.420769;-0.363567;-0.352016;-0.326233;-0.290699;-0.283688;-0.284981;-0.254942;-0.183592;-0.155192;-0.150122;-0.106568;-0.085724;-0.007531;0.071979;0.175661;0.135359;0.193368;0.275125;0.296872;0.420121;0.469410;0.502974;0.598991;0.650961;0.712779;0.796687;0.863361;0.944132;0.983245;1.079798;1.120547;1.238445;1.284667;1.321727;1.388861;1.486968;1.502866;1.578633;1.657906;1.685824;1.705611;1.770821;1.797720;1.849823;1.839832;1.816667;1.934208;1.936604;1.939024;1.966620;1.954261;1.949172;1.911843;1.907112;1.892443;1.872012;1.845857;1.794031;1.810529;1.760853;1.721826;1.628293;1.609589;1.585306;1.553169;1.508005;1.405475;1.313203;1.296350;1.248707;1.155890;1.037688;1.030066;0.931971;0.862693;0.817062;0.706357;0.645062;0.574533;0.486937;0.458490;0.337769;0.309678;0.226958;0.202661;0.079390;0.024710;-0.044390;-0.058875;-0.142928;-0.157803;-0.266437;-0.321176;-0.355699;-0.404594;-0.467046;-0.500337;-0.541533;-0.573915;-0.632015;-0.704352;-0.731188;-0.728626;-0.770168;-0.846124;-0.848838;-0.858248;-0.938053;-0.908502;-0.967845;-0.982805;-1.051860;-1.087800;-1.063249;-1.088515;-1.099548;-1.103932;-1.105557;-1.189841;-1.172695;-1.197039;-1.217909;-1.245647;-1.205603;-1.280989;-1.254189;-1.286084;-1.271717;-1.280722;-1.307455
-1.218662;-1.079346;-1.077348;-0.976245;-0.891386;-0.768255;-0.697587;-0.619623;-0.555923;-0.471249;-0.356302;-0.279972;-0.142597;0.005768;0.012363;0.100858;0.266333;0.308169;0.373956;0.477937;0.675905;0.663119;0.837559;0.860622;1.011932;1.089027;1.124101;1.232009;1.332726;1.417329;1.472425;1.502718;1.523545;1.685517;1.788263;1.700227;1.855521;1.808694;1.845835;1.878824;1.971467;1.904143;1.965563;1.886433;1.915955;1.956786;1.963667;1.858265;1.884014;1.759685;1.779541;1.745934;1.722755;1.664689;1.658209;1.569942;1.563985;1.502712;1.404014;1.354993;1.268513;1.230584;1.193564;1.063690;1.084934;0.956787;0.927137;0.892213;0.839536;0.713945;0.672652;0.498519;0.557579;0.505052;0.440822;0.365663;0.369467;0.281255;0.183806;0.163869;0.066725;0.087950;0.094955;0.023292;-0.017718;0.001787;-0.117557;-0.124495;-0.164619;-0.119772;-0.152033;-0.151767;-0.130234;-0.176165;-0.187227;-0.247903;-0.228186;-0.202249;-0.293312;-0.184026;-0.242612;-0.224373;-0.250559;-0.207817;-0.213171;-0.262646;-0.170618;-0.227170;-0.173843;-0.183785;-0.178586;-0.142123;-0.201182;-0.166613;-0.224826;-0.144278;-0.125544;-0.138083;-0.154443;-0.157246;-0.184954;-0.089100;-0.130185;-0.165685;-0.175429;-0.158409;-0.206124;-0.108784;-0.143772;-0.178010;-0.136359;-0.182011;-0.160960;-0.176677;-0.213593;-0.227306;-0.231205;-0.234784;-0.239365;-0.312663;-0.217049;-0.328047;-0.208953;-0.259760;-0.306399;-0.267652;-0.295443;-0.358192;-0.364156;-0.391861;-0.380018;-0.457402;-0.497015;-0.470437;-0.524177;-0.498532;-0.549791;-0.513321;-0.579552;-0.591614;-0.684983;-0.638352;-0.715100;-0.715319;-0.798916;-0.852873;-0.857027;-0.842579;-0.867312;-0.871677;-0.983045;-1.005619;-1.027832;-1.013074;-1.149550;-1.146463;-1.167523;-1.204639;-1.261838;-1.342860;-1.316056;-1.363702;-1.351264;-1.415587;-1.463200;-1.433897;-1.520650;-1.570952;-1.578088;-1.683310;-1.631648;-1.615261;-1.662218;-1.717054;-1.731873;-1.785992;-1.768095;-1.846232;-1.742997;-1.887650
-1.928045;-1.931676;-1.830399;-1.944197;-1.790043;-1.750782;-1.706940;-1.600582;-1.666147;-1.647097;-1.616827;-1.482020;-1.563746;-1.454293;-1.499983;-1.406510;-1.289074;-1.292452;-1.248290;-1.188098;-1.130543;-1.030053;-1.044637;-0.928320;-0.886334;-0.817007;-0.833555;-0.769856;-0.680709;-0.659360;-0.569353;-0.472455;-0.428763;-0.379186;-0.252966;-0.314118;-0.196739;-0.057022;-0.032777;0.018663;0.084545;0.123310;0.195245;0.262033;0.340256;0.384938;0.417061;0.522845;0.592974;0.617739;0.713250;0.746052;0.857376;0.842774;0.968677;0.955987;1.059446;1.121219;1.161655;1.235205;1.290891;1.339029;1.358191;1.433939;1.403668;1.439842;1.545294;1.549369;1.522635;1.594476;1.649940;1.626209;1.721999;1.702858;1.711503;1.693866;1.750110;1.792577;1.707559;1.671340;1.700799;1.566135;1.643056;1.615726;1.559062;1.511347;1.518152;1.525860;1.493481;1.392705;1.338727;1.295217;1.256062;1.170021;1.156774;1.035821;1.000915;0.983933;0.832999;0.818527;0.709498;0.759610;0.676930;0.528212;0.496166;0.423734;0.420781;0.343840;0.339017;0.174271;0.176809;0.192690;0.142478;0.046711;-0.072510;-0.012775;-0.107718;-0.161447;-0.140872;-0.167998;-0.155990;-0.135861;-0.191664;-0.255262;-0.223315;-0.283694;-0.289887;-0.199464;-0.306116;-0.287700;-0.197909;-0.180277;-0.218738;-0.223639;-0.217814;-0.152761;-0.128397;-0.096158;-0.145687;-0.015083;-0.042305;-0.033803;-0.078701;-0.023258;-0.004832;0.067929;0.076113;0.082660;0.064468;0.039503;0.060385;0.147769;0.090713;0.146222;0.139738;0.153272;0.146062;0.134945;0.108567;0.120367;0.157766;0.080182;0.145328;0.065581;0.052518;-0.011375;-0.066363;-0.053334;-0.055482;-0.215755;-0.217392;-0.255828;-0.259098;-0.365953;-0.474404;-0.473634;-0.542323;-0.537929;-0.597820;-0.676282;-0.705186;-0.716299;-0.853808;-0.937655;-0.955926;-1.042300;-1.142091;-1.116020;-1.221401;-1.262370;-1.395172;-1.398145;-1.457787;-1.496970;-1.591367;-1.624837;-1.634452;-1.719421;-1.687840;-1.818092
-1.393947;-1.373160;-1.328837;-1.296599;-1.326583;-1.287781;-1.247798;-1.241361;-1.260958;-1.187755;-1.183715;-1.131903;-1.185965;-1.103204;-1.072979;-1.046065;-1.054404;-0.990299;-0.976302;-0.921657;-0.965952;-0.874605;-0.792545;-0.799499;-0.774832;-0.789401;-0.751418;-0.663354;-0.605772;-0.565518;-0.518115;-0.466422;-0.439443;-0.392367;-0.342783;-0.271101;-0.290010;-0.139808;-0.087868;-0.054478;-0.007317;0.106172;0.127456;0.219687;0.235908;0.288117;0.381893;0.458037;0.506143;0.608374;0.680104;0.670788;0.753190;0.810207;0.926265;0.970426;1.086612;1.145062;1.199482;1.258061;1.306740;1.365105;1.461835;1.500255;1.573352;1.593217;1.605683;1.698732;1.757249;1.786064;1.839673;1.865775;1.875920;1.878851;1.927832;1.932945;1.972313;1.979600;1.985356;1.952151;1.950476;1.903594;1.901390;1.906644;1.897126;1.829869;1.819549;1.783989;1.671133;1.644852;1.605281;1.578938;1.485678;1.437027;1.307239;1.288048;1.219212;1.099246;1.061546;1.048912;0.957151;0.878404;0.798971;0.701505;0.650613;0.561961;0.517381;0.396883;0.382854;0.327940;0.220426;0.195531;0.083549;0.068438;0.027489;-0.066870;-0.133001;-0.198286;-0.178188;-0.250258;-0.292224;-0.346530;-0.327039;-0.393239;-0.395630;-0.442875;-0.490635;-0.479717;-0.464935;-0.570299;-0.596892;-0.537032;-0.534259;-0.583238;-0.547880;-0.537225;-0.581124;-0.510903;-0.557492;-0.527973;-0.496521;-0.499675;-0.505576;-0.441754;-0.529238;-0.497347;-0.492036;-0.469020;-0.469625;-0.460075;-0.453954;-0.460597;-0.479459;-0.398757;-0.366439;-0.452215;-0.390982;-0.434012;-0.419107;-0.436844;-0.447763;-0.457561;-0.443044;-0.495641;-0.457479;-0.490292;-0.453714;-0.464734;-0.541152;-0.567472;-0.518417;-0.578009;-0.561878;-0.596492;-0.652599;-0.665176;-0.688195;-0.686566;-0.719241;-0.752697;-0.800788;-0.800143;-0.846382;-0.855565;-0.901757;-0.929905;-0.937280;-0.901812;-1.000155;-1.027639;-1.014574;-1.101747;-1.148904;-1.082658;-1.105585;-1.112669;-1.153312;-1.197408;-1.185127;-1.257090
-1.501738;-1.526860;-1.504076;-1.436650;-1.372256;-1.412141;-1.379311;-1.366148;-1.390346;-1.373998;-1.299397;-1.313691;-1.261445;-1.253951;-1.228904;-1.193468;-1.169925;-1.176297;-1.110706;-1.139138;-1.091505;-1.015916;-1.022024;-0.978546;-0.982200;-0.886757;-0.819960;-0.868577;-0.807170;-0.733602;-0.748593;-0.650547;-0.669523;-0.584641;-0.571365;-0.466533;-0.455055;-0.411223;-0.356687;-0.311304;-0.266778;-0.243982;-0.131571;-0.121892;-0.069995;0.018260;0.085228;0.126451;0.181683;0.215841;0.291223;0.391636;0.404637;0.480981;0.581597;0.583170;0.666741;0.753735;0.811956;0.831196;0.919355;0.976150;1.046284;1.071457;1.114035;1.194863;1.227462;1.244813;1.303827;1.366708;1.427008;1.481028;1.480713;1.535501;1.589248;1.588627;1.561735;1.597281;1.570853;1.593616;1.628790;1.694316;1.682296;1.684645;1.681147;1.654574;1.637016;1.652560;1.649156;1.574204;1.609395;1.574688;1.522623;1.525528;1.485490;1.417967;1.402051;1.407591;1.354786;1.339060;1.234647;1.207325;1.213317;1.177551;1.220603;1.090473;1.048438;0.986157;0.998559;0.900110;0.883948;0.845197;0.780870;0.782801;0.723260;0.684790;0.656654;0.612326;0.544208;0.519169;0.462364;0.504594;0.381231;0.356323;0.368137;0.295573;0.302537;0.235120;0.234284;0.192410;0.214926;0.177580;0.112533;0.104088;0.056403;0.004452;0.040515;0.007004;-0.069766;-0.004717;-0.059614;-0.076140;-0.121315;-0.169002;-0.158959;-0.196439;-0.203116;-0.226435;-0.237977;-0.258290;-0.290407;-0.288202;-0.335251;-0.348018;-0.298234;-0.340284;-0.403771;-0.388911;-0.518529;-0.452981;-0.513308;-0.488184;-0.497101;-0.479119;-0.552507;-0.593259;-0.616951;-0.633493;-0.675965;-0.715302;-0.748647;-0.791155;-0.814702;-0.791549;-0.844914;-0.889168;-0.934770;-0.904600;-0.970183;-1.027776;-1.054692;-0.987184;-1.088127;-1.063351;-1.150589;-1.152756;-1.183743;-1.203948;-1.237024;-1.213807;-1.254009;-1.300689;-1.301712;-1.327880;-1.401984;-1.431326;-1.384378;-1.412996;-1.462803;-1.434860
-1.448475;-1.353690;-1.411096;-1.324577;-1.267414;-1.163970;-1.085160;-1.163472;-1.055216;-1.008074;-0.942089;-0.906426;-0.833413;-0.793860;-0.714996;-0.594808;-0.628678;-0.601007;-0.537039;-0.366278;-0.353431;-0.302144;-0.237944;-0.146412;-0.143333;0.018822;-0.064043;0.061296;0.140217;0.088802;0.237249;0.272662;0.305245;0.338979;0.387447;0.408182;0.425384;0.605413;0.570130;0.599425;0.589803;0.647057;0.636111;0.712543;0.683807;0.736363;0.738328;0.778292;0.847393;0.791213;0.826188;0.782096;0.846901;0.777172;0.865267;0.841809;0.844926;0.914997;0.864623;0.888649;0.785902;0.781595;0.798471;0.844496;0.880604;0.830431;0.815060;0.848194;0.861144;0.829480;0.780232;0.823486;0.872752;0.770981;0.793924;0.807043;0.842945;0.814366;0.899306;0.843085;0.824924;0.831376;0.873779;0.858373;0.843140;0.935198;0.868256;0.901708;0.929940;0.914320;0.937869;0.912212;0.945367;0.930294;1.007390;1.067443;0.978058;1.038022;1.002603;1.091114;1.023061;1.074447;1.045994;1.127187;1.031654;1.083942;1.169032;1.085902;1.045592;1.079044;1.123502;1.095044;1.074853;1.089039;1.055865;1.021175;1.068644;0.994982;1.028144;0.990554;1.047097;0.891609;0.943963;0.939225;0.831628;0.811966;0.786960;0.724681;0.732901;0.722076;0.605352;0.554031;0.570366;0.472678;0.521392;0.413344;0.384404;0.311060;0.170452;0.205538;0.102992;0.078885;0.016495;-0.059424;-0.114802;-0.128832;-0.198232;-0.244369;-0.351795;-0.348784;-0.385315;-0.482488;-0.525508;-0.606898;-0.595958;-0.677898;-0.741577;-0.782978;-0.737695;-0.875865;-0.915540;-0.965281;-0.990787;-1.045011;-1.017550;-1.175844;-1.103845;-1.221103;-1.178038;-1.267767;-1.328500;-1.366532;-1.371634;-1.381267;-1.485110;-1.480879;-1.483933;-1.519518;-1.539431;-1.572242;-1.617327;-1.649882;-1.653389;-1.704114;-1.674256;-1.719313;-1.667379;-1.788275;-1.746557;-1.760130;-1.806271;-1.859281;-1.827831;-1.886304;-1.831964;-1.865887;-1.932783;-1.886224;-1.863410;-1.978579
-1.782379;-1.769117;-1.774450;-1.778041;-1.779919;-1.772908;-1.683076;-1.701770;-1.766347;-1.786983;-1.780441;-1.719881;-1.741440;-1.707023;-1.703648;-1.629976;-1.715472;-1.637680;-1.648595;-1.651560;-1.613847;-1.601352;-1.609004;-1.555978;-1.509481;-1.506347;-1.466060;-1.473259;-1.430583;-1.440324;-1.430535;-1.342829;-1.335597;-1.279479;-1.257287;-1.226283;-1.224417;-1.136467;-1.130086;-1.123175;-1.061006;-1.028854;-0.962125;-0.907962;-0.888134;-0.790149;-0.773866;-0.747891;-0.707168;-0.529836;-0.568638;-0.478229;-0.540972;-0.404819;-0.352580;-0.272282;-0.186774;-0.224890;-0.074144;-0.116301;-0.023040;0.002642;0.126670;0.128286;0.184075;0.230054;0.279799;0.337138;0.383921;0.409472;0.471181;0.422807;0.447939;0.580397;0.540386;0.566611;0.610680;0.631914;0.603287;0.707925;0.620337;0.645322;0.620106;0.611627;0.596760;0.625140;0.641200;0.610558;0.568352;0.548833;0.465032;0.492041;0.468593;0.402368;0.372338;0.403179;0.332744;0.309978;0.254265;0.135093;0.177504;0.165639;0.097111;0.087525;0.087080;0.068226;0.006579;0.027648;-0.044083;-0.075790;-0.068454;-0.052980;-0.090459;-0.125982;-0.074931;-0.096828;-0.087793;-0.046024;-0.102000;-0.063557;-0.026380;-0.049340;-0.034993;0.035815;0.047557;0.140495;0.160426;0.207128;0.218926;0.261837;0.309000;0.429079;0.441805;0.593428;0.579481;0.583362;0.685956;0.725821;0.778869;0.984399;0.904872;1.050668;1.115957;1.163911;1.204701;1.222902;1.327737;1.343941;1.399233;1.494579;1.480617;1.491848;1.555233;1.500946;1.617488;1.732711;1.621345;1.657984;1.701218;1.704898;1.619063;1.563412;1.610126;1.539948;1.561479;1.469299;1.509862;1.450314;1.441579;1.419043;1.305717;1.278115;1.133873;1.126761;1.061689;0.948610;0.907517;0.816307;0.747760;0.637845;0.631173;0.500487;0.443428;0.339934;0.168834;0.155195;0.041830;0.014166;-0.120294;-0.149444;-0.247831;-0.369306;-0.377668;-0.502291;-0.604726;-0.604589;-0.741398;-0.731408;-0.825753;-0.848841
-2.232286;-2.254744;-2.237038;-2.224828;-2.140057;-2.119995;-2.069626;-1.918645;-1.835825;-1.851988;-1.810819;-1.678658;-1.486055;-1.541003;-1.384185;-1.388501;-1.326664;-1.306537;-1.215437;-1.070952;-1.001356;-0.918228;-0.929744;-0.821535;-0.605920;-0.610342;-0.522202;-0.425819;-0.416755;-0.302060;-0.308663;-0.273332;-0.125818;-0.037410;-0.020650;0.086810;0.078557;0.162092;0.176751;0.216361;0.259304;0.255847;0.386548;0.403808;0.367355;0.419782;0.542420;0.485535;0.591142;0.485003;0.688567;0.559839;0.560769;0.611130;0.625083;0.616346;0.652651;0.666145;0.616339;0.539974;0.593937;0.689538;0.646271;0.681434;0.675439;0.544423;0.570632;0.627855;0.677138;0.496884;0.673629;0.524903;0.520752;0.445991;0.413448;0.448318;0.414314;0.356510;0.329450;0.230396;0.233483;0.287845;0.174350;0.151678;0.218257;0.131212;0.035048;0.048494;-0.018788;-0.066759;-0.057223;-0.123102;-0.361259;-0.294301;-0.291617;-0.342690;-0.358090;-0.430282;-0.408704;-0.525303;-0.561380;-0.511610;-0.661448;-0.576572;-0.624209;-0.602026;-0.652332;-0.692665;-0.778516;-0.664630;-0.750731;-0.695196;-0.768618;-0.730975;-0.672523;-0.594329;-0.582731;-0.579185;-0.658549;-0.543826;-0.498889;-0.430387;-0.490333;-0.426355;-0.411653;-0.137331;-0.110197;-0.123778;0.006174;-0.060458;0.019459;0.168494;0.287648;0.287406;0.347660;0.527162;0.570797;0.748743;0.800380;0.935289;1.052815;1.113131;1.111621;1.130639;1.234443;1.231877;1.317379;1.474591;1.559623;1.446410;1.611846;1.705411;1.702627;1.742826;1.700748;1.788633;1.796010;1.798176;1.778138;1.677469;1.748353;1.768350;1.646194;1.694450;1.564614;1.495277;1.550701;1.485265;1.371044;1.296254;1.236442;1.084487;1.011833;0.913280;0.844830;0.602751;0.626490;0.456922;0.402622;0.259860;0.139269;-0.005267;-0.046835;-0.165158;-0.304365;-0.474068;-0.573907;-0.700838;-0.775179;-0.946603;-1.130268;-1.239075;-1.247515;-1.400552;-1.522340;-1.623461;-1.670979;-1.878449;-1.854516;-1.926097
-1.474945;-1.464291;-1.455358;-1.414699;-1.405751;-1.416401;-1.312176;-1.325516;-1.316382;-1.239967;-1.242671;-1.226306;-1.176340;-1.163011;-1.064775;-1.091714;-1.143254;-1.002117;-0.989055;-0.973547;-0.930414;-0.914106;-0.862193;-0.902788;-0.808816;-0.837313;-0.783767;-0.770915;-0.682501;-0.763660;-0.716565;-0.700748;-0.617830;-0.571897;-0.679621;-0.606612;-0.590621;-0.591497;-0.606104;-0.580103;-0.606315;-0.564323;-0.554458;-0.581345;-0.639728;-0.600287;-0.607551;-0.620237;-0.645904;-0.587025;-0.602916;-0.633386;-0.634389;-0.708592;-0.652004;-0.611346;-0.700900;-0.732805;-0.623837;-0.786782;-0.691005;-0.795995;-0.793092;-0.783321;-0.799471;-0.804384;-0.771164;-0.768375;-0.810557;-0.816682;-0.730360;-0.738002;-0.711114;-0.805544;-0.722945;-0.758404;-0.734933;-0.733811;-0.711464;-0.630341;-0.644956;-0.555879;-0.563451;-0.508941;-0.467363;-0.433037;-0.358160;-0.337384;-0.345623;-0.234102;-0.186410;-0.069559;-0.090438;0.013221;0.017360;0.147068;0.225601;0.238043;0.373690;0.323210;0.432366;0.480403;0.571030;0.650875;0.725557;0.775763;0.871145;0.923282;0.987143;0.977612;1.050708;1.127495;1.141774;1.277010;1.340549;1.303983;1.369939;1.498467;1.460697;1.549497;1.563599;1.505574;1.609829;1.595449;1.685721;1.621976;1.727248;1.655074;1.707231;1.735498;1.683620;1.707903;1.730558;1.660096;1.682352;1.695426;1.652766;1.685957;1.642106;1.600274;1.624828;1.600132;1.593845;1.578188;1.528795;1.504393;1.452305;1.429554;1.396849;1.385597;1.430530;1.285222;1.301108;1.217951;1.160393;1.115918;1.078856;1.049197;1.032035;0.950040;0.897135;0.877142;0.767319;0.727073;0.727151;0.669280;0.530534;0.494894;0.437582;0.394992;0.370033;0.246643;0.196875;0.200022;0.060883;-0.004505;-0.065819;-0.081767;-0.219662;-0.198253;-0.278131;-0.351363;-0.523057;-0.446306;-0.564511;-0.619444;-0.697560;-0.734851;-0.805591;-0.842142;-0.880615;-0.906152;-0.958127;-1.067533;-1.037812;-1.081336;-1.190357;-1.240439;-1.228053;-1.274906
-1.451554;-1.359305;-1.387394;-1.386267;-1.324043;-1.370478;-1.315686;-1.320754;-1.353395;-1.298420;-1.305811;-1.320224;-1.300992;-1.328554;-1.271263;-1.259835;-1.237780;-1.225927;-1.222278;-1.226905;-1.187085;-1.167392;-1.128974;-1.092759;-1.119530;-1.126525;-1.091077;-1.028361;-1.033625;-1.042844;-0.955709;-0.971118;-0.900062;-0.903022;-0.873607;-0.865687;-0.755317;-0.771017;-0.763411;-0.635406;-0.610760;-0.628871;-0.554327;-0.445183;-0.500102;-0.443441;-0.402306;-0.330872;-0.305775;-0.230902;-0.193979;-0.151414;-0.128128;-0.031610;-0.016834;0.082556;0.074798;0.116501;0.185742;0.251610;0.276093;0.363313;0.433778;0.465022;0.503312;0.612001;0.705350;0.666867;0.706123;0.787684;0.818140;0.833342;0.857436;0.907706;0.988551;1.019731;1.060792;1.078785;1.131760;1.161313;1.190103;1.265461;1.283175;1.286001;1.257675;1.330422;1.308102;1.369975;1.344481;1.389280;1.493884;1.434517;1.433225;1.455164;1.451492;1.448386;1.488306;1.439109;1.464206;1.467136;1.495027;1.525953;1.459279;1.490233;1.486017;1.440207;1.406911;1.423609;1.403193;1.389325;1.407851;1.379563;1.380853;1.327243;1.369233;1.298159;1.292505;1.243549;1.245926;1.224975;1.171424;1.123929;1.127738;1.096544;1.055306;1.035226;0.967987;0.964654;0.869983;0.836737;0.865515;0.770445;0.736626;0.714103;0.675546;0.589568;0.605430;0.526649;0.502205;0.449056;0.412595;0.336796;0.330315;0.265505;0.232515;0.162387;0.091453;0.110293;0.084389;0.044370;-0.066372;-0.068848;-0.083146;-0.121831;-0.198604;-0.244909;-0.221851;-0.299831;-0.301659;-0.424020;-0.420947;-0.480944;-0.477206;-0.521656;-0.520272;-0.607988;-0.654864;-0.626857;-0.657685;-0.735991;-0.759190;-0.769505;-0.791857;-0.788542;-0.833921;-0.871908;-0.915175;-0.886570;-0.939747;-0.957893;-0.968161;-0.945646;-1.004545;-1.061024;-1.052058;-1.079056;-1.137534;-1.170144;-1.149609;-1.160463;-1.192178;-1.211037;-1.280700;-1.192446;-1.200912;-1.270431;-1.285931;-1.297745;-1.275183;-1.294814
-1.345939;-1.353477;-1.294986;-1.294321;-1.147030;-1.164065;-1.025177;-1.059866;-0.927148;-0.855958;-0.723244;-0.644188;-0.700692;-0.567126;-0.402916;-0.475635;-0.316309;-0.337864;-0.188473;-0.138964;-0.076588;0.019661;0.031827;0.121427;0.186756;0.275695;0.279906;0.352156;0.392991;0.395057;0.485155;0.574113;0.585191;0.545682;0.628922;0.687042;0.627841;0.773338;0.701877;0.801579;0.763931;0.703771;0.684446;0.686723;0.766297;0.700510;0.628164;0.663817;0.603640;0.518263;0.507007;0.512081;0.432756;0.459929;0.376375;0.263108;0.258453;0.180063;0.100190;0.054013;-0.020636;-0.103994;-0.169405;-0.221791;-0.280905;-0.332019;-0.371945;-0.476793;-0.508935;-0.564911;-0.684924;-0.689113;-0.821640;-0.807380;-0.896497;-0.925211;-0.971226;-1.010330;-1.091539;-1.179881;-1.155686;-1.218234;-1.261669;-1.284878;-1.294033;-1.295095;-1.370694;-1.380805;-1.359901;-1.407110;-1.368493;-1.397555;-1.518682;-1.448335;-1.424082;-1.439636;-1.500779;-1.390636;-1.428180;-1.407889;-1.355886;-1.393779;-1.282212;-1.291629;-1.261834;-1.157545;-1.219413;-1.196841;-1.187365;-1.080814;-1.094150;-0.980996;-0.997393;-0.937706;-0.865074;-0.812499;-0.769024;-0.694707;-0.652443;-0.557771;-0.518237;-0.465272;-0.347515;-0.364706;-0.211789;-0.128847;-0.166652;0.037920;0.028595;0.143618;0.216820;0.310636;0.389808;0.507758;0.541133;0.627302;0.749153;0.846037;0.891033;0.979989;1.058342;1.136158;1.208429;1.261490;1.327257;1.422489;1.446535;1.471749;1.663704;1.650637;1.649484;1.762723;1.729980;1.733601;1.764378;1.791022;1.850574;1.864199;1.819222;1.846220;1.833637;1.863346;1.752905;1.751432;1.714903;1.640168;1.678552;1.563329;1.572133;1.507899;1.381778;1.403316;1.292789;1.269815;1.153145;1.067883;0.960051;0.913275;0.739486;0.684030;0.610255;0.497785;0.431076;0.298903;0.145877;0.112047;0.078422;-0.066452;-0.184537;-0.169324;-0.282720;-0.378311;-0.534846;-0.587238;-0.718572;-0.708114;-0.859355;-0.947848;-1.020411;-1.004737
-0.647209;-0.561955;-0.518413;-0.483034;-0.399629;-0.358171;-0.306070;-0.157851;-0.132295;-0.003879;0.036302;0.158977;0.241991;0.308646;0.357449;0.440858;0.498259;0.550974;0.690171;0.749983;0.860282;0.875477;0.958787;1.069012;1.148815;1.210453;1.302278;1.313749;1.436458;1.475765;1.494194;1.551992;1.632278;1.702752;1.725293;1.726533;1.781454;1.828675;1.770376;1.856908;1.865680;1.855553;1.909356;1.841333;1.886094;1.857995;1.881994;1.815864;1.848014;1.819519;1.811507;1.763034;1.733246;1.693330;1.654351;1.644084;1.577132;1.533329;1.474379;1.390389;1.359028;1.288981;1.301966;1.170686;1.118591;1.071890;1.017624;0.946751;0.918769;0.841580;0.793171;0.752685;0.689526;0.572184;0.560230;0.554236;0.458123;0.445849;0.421369;0.342010;0.285917;0.268620;0.200060;0.194379;0.124781;0.090138;0.070756;0.048495;0.005107;-0.010246;-0.069612;-0.035290;-0.127368;-0.124103;-0.155203;-0.168673;-0.238289;-0.241444;-0.234358;-0.224480;-0.248015;-0.276145;-0.261041;-0.312042;-0.280476;-0.339258;-0.307263;-0.344231;-0.338848;-0.359955;-0.359130;-0.415569;-0.392303;-0.416686;-0.405920;-0.470325;-0.410303;-0.451364;-0.477040;-0.431575;-0.439478;-0.465188;-0.495194;-0.518271;-0.504307;-0.521872;-0.523272;-0.536312;-0.577087;-0.538100;-0.559191;-0.555849;-0.544271;-0.573559;-0.583726;-0.679469;-0.599664;-0.606055;-0.634895;-0.691182;-0.690156;-0.611154;-0.714297;-0.735793;-0.701822;-0.756234;-0.711447;-0.760790;-0.764316;-0.772478;-0.812299;-0.802463;-0.797041;-0.823733;-0.869820;-0.863618;-0.900437;-0.865829;-0.859371;-0.899789;-0.904861;-0.936751;-0.978678;-0.972637;-0.959266;-1.007995;-1.037205;-1.010089;-1.029611;-1.043513;-1.068739;-1.085069;-1.069563;-1.089307;-1.091392;-1.091679;-1.104812;-1.101549;-1.106787;-1.178466;-1.175563;-1.208082;-1.182629;-1.206655;-1.236281;-1.232953;-1.206173;-1.260251;-1.280893;-1.283034;-1.252758;-1.269428;-1.279782;-1.281638;-1.280704;-1.313376;-1.325333;-1.349441;-1.340266;-1.336726
-0.747807;-0.671789;-0.656979;-0.627451;-0.583006;-0.556775;-0.504283;-0.505963;-0.463816;-0.392017;-0.364837;-0.325147;-0.263259;-0.239891;-0.211066;-0.117141;-0.059652;-0.092180;-0.036199;0.088452;0.114691;0.160212;0.178392;0.256739;0.262438;0.326660;0.379824;0.412321;0.448141;0.521110;0.551679;0.575204;0.668952;0.719388;0.783077;0.788307;0.815359;0.902874;0.945338;0.928031;0.981844;1.078862;1.026951;1.101160;1.172745;1.202910;1.234122;1.234341;1.261585;1.312611;1.341149;1.370905;1.363563;1.389356;1.469686;1.454723;1.491000;1.518078;1.546144;1.520558;1.529069;1.574960;1.579098;1.581212;1.590009;1.579401;1.608837;1.641065;1.614221;1.604538;1.553519;1.607124;1.569297;1.552149;1.564827;1.531126;1.512889;1.485662;1.453115;1.418573;1.414729;1.365309;1.303508;1.319084;1.276005;1.250610;1.208637;1.202120;1.113019;1.081048;1.022288;0.934928;0.925220;0.886247;0.831237;0.744099;0.707360;0.610761;0.619635;0.526011;0.489393;0.422345;0.388823;0.313210;0.225803;0.143227;0.086313;0.081038;0.051265;-0.033449;-0.096572;-0.152945;-0.161780;-0.247918;-0.299115;-0.360783;-0.396245;-0.440322;-0.441909;-0.502392;-0.520864;-0.551367;-0.604153;-0.637672;-0.687785;-0.714953;-0.740501;-0.759710;-0.785316;-0.794854;-0.835578;-0.867227;-0.844764;-0.891022;-0.925106;-0.909105;-0.947772;-0.885166;-0.889094;-0.916678;-0.955881;-0.996402;-0.999751;-0.994148;-0.988260;-0.995987;-1.018401;-1.016334;-1.043104;-1.024258;-1.044915;-1.011984;-1.008858;-0.995378;-1.001789;-1.017525;-1.005445;-1.047301;-1.045926;-1.018034;-1.040087;-1.044402;-1.013683;-1.027482;-1.061650;-1.035968;-1.020935;-1.061333;-1.088809;-1.045703;-1.059753;-1.077109;-1.066149;-1.097120;-1.065317;-1.078225;-1.098611;-1.104503;-1.083275;-1.079083;-1.116832;-1.118703;-1.112598;-1.095877;-1.116135;-1.143311;-1.156600;-1.121888;-1.115703;-1.157969;-1.124947;-1.158062;-1.141266;-1.182259;-1.149534;-1.152481;-1.161486;-1.158293;-1.201118;-1.168128
-1.437301;-1.442270;-1.427276;-1.431184;-1.381478;-1.358010;-1.362933;-1.289504;-1.286483;-1.239922;-1.237295;-1.183963;-1.186584;-1.099515;-1.089537;-1.081500;-1.037791;-1.047001;-1.010144;-0.967571;-0.984994;-0.926324;-0.914628;-0.847562;-0.823925;-0.778959;-0.694555;-0.714252;-0.694988;-0.648479;-0.653833;-0.609827;-0.525122;-0.545288;-0.473106;-0.448118;-0.427853;-0.434583;-0.388175;-0.353262;-0.299426;-0.280584;-0.272286;-0.210388;-0.187101;-0.170306;-0.197612;-0.160430;-0.107191;-0.098687;-0.043050;-0.046713;-0.028109;0.012486;0.086357;0.052173;0.071296;0.080431;0.117002;0.149090;0.194374;0.206011;0.201906;0.248783;0.265968;0.301042;0.299634;0.370763;0.350992;0.385353;0.442611;0.385044;0.457068;0.536689;0.529286;0.569228;0.603398;0.635712;0.681696;0.639752;0.763350;0.737878;0.744511;0.789822;0.836912;0.936203;0.921458;0.911187;0.976016;1.042049;1.053163;1.082542;1.066626;1.122790;1.130334;1.235181;1.290400;1.254171;1.314819;1.338907;1.353564;1.401628;1.410755;1.477185;1.439481;1.502340;1.512371;1.529964;1.569648;1.514092;1.591317;1.601695;1.577683;1.600223;1.545827;1.582161;1.532978;1.568446;1.552977;1.554605;1.498836;1.498510;1.496410;1.431311;1.414374;1.410323;1.318935;1.331261;1.233720;1.247131;1.212021;1.175840;1.049738;1.068666;1.053346;0.917059;0.870966;0.775490;0.741077;0.722792;0.646318;0.527659;0.575957;0.475873;0.389859;0.377465;0.309137;0.238103;0.174089;0.125673;0.061940;0.027249;-0.038882;-0.050066;-0.198984;-0.211776;-0.224597;-0.354786;-0.347226;-0.477720;-0.475802;-0.535301;-0.579389;-0.652637;-0.671277;-0.723493;-0.725076;-0.813707;-0.841841;-0.844345;-0.934492;-0.995848;-0.943573;-0.970554;-1.048239;-1.032197;-1.114064;-1.122828;-1.189927;-1.207128;-1.241610;-1.263158;-1.270855;-1.269295;-1.318679;-1.339557;-1.410820;-1.370605;-1.407309;-1.457975;-1.429025;-1.454912;-1.412517;-1.465315;-1.536306;-1.552899;-1.510951;-1.490406;-1.558489;-1.565119
-1.840092;-1.825294;-1.886388;-1.783147;-1.869846;-1.798289;-1.768833;-1.705530;-1.750628;-1.745973;-1.701533;-1.689182;-1.674154;-1.714287;-1.663304;-1.570642;-1.608303;-1.576502;-1.554806;-1.511256;-1.464185;-1.440973;-1.440746;-1.383539;-1.400374;-1.346357;-1.276935;-1.257694;-1.217855;-1.149280;-1.178114;-1.085739;-1.073990;-1.017795;-0.935078;-0.951311;-0.841155;-0.795225;-0.749725;-0.705607;-0.614775;-0.588791;-0.518429;-0.530560;-0.409843;-0.350450;-0.243734;-0.133531;-0.091036;-0.077917;-0.001300;0.068431;0.214583;0.274012;0.382149;0.392504;0.527145;0.684350;0.644846;0.715418;0.740693;0.914201;1.021071;1.088709;1.024717;1.189620;1.263061;1.269165;1.272678;1.315473;1.453395;1.406717;1.555099;1.582671;1.584021;1.599492;1.623562;1.650329;1.633514;1.695316;1.645306;1.661493;1.616768;1.637348;1.672786;1.612539;1.612782;1.568499;1.480806;1.453128;1.498076;1.463996;1.389134;1.325020;1.278760;1.290707;1.223715;1.148264;1.097077;1.064829;1.031085;0.838696;0.850876;0.806380;0.736341;0.702893;0.658915;0.604947;0.506699;0.513980;0.489612;0.354936;0.369433;0.242023;0.256352;0.238607;0.201144;0.235568;0.161514;0.122302;0.082185;0.106868;0.103914;0.099624;0.071884;0.057648;0.041624;0.022980;0.049222;0.080010;0.057945;0.048507;0.056979;0.130473;0.108282;0.105263;0.133818;0.185291;0.187043;0.169898;0.197792;0.213453;0.284781;0.330759;0.311610;0.295196;0.343129;0.415154;0.403925;0.332590;0.402565;0.423589;0.390639;0.395137;0.444116;0.428142;0.381941;0.384022;0.393736;0.391266;0.316012;0.429670;0.351083;0.274957;0.293027;0.278120;0.264189;0.163101;0.134383;0.133445;0.050399;0.024737;-0.033032;-0.051860;-0.108132;-0.150189;-0.222342;-0.270756;-0.314623;-0.315881;-0.392925;-0.459033;-0.530291;-0.656083;-0.673298;-0.721725;-0.848206;-0.812300;-0.882565;-1.023760;-1.019769;-1.016953;-1.116210;-1.137364;-1.182264;-1.291936;-1.326412;-1.354949;-1.388763;-1.414748
-1.293001;-1.318987;-1.229059;-1.118085;-1.077003;-0.958005;-0.824739;-0.807934;-0.659084;-0.556482;-0.536873;-0.280528;-0.296665;-0.177471;-0.027260;0.085748;0.162456;0.241159;0.332018;0.448465;0.570622;0.689426;0.830167;0.817422;0.976476;1.031272;1.155823;1.218082;1.336524;1.411657;1.532326;1.521935;1.630770;1.610598;1.712684;1.741609;1.809694;1.881413;1.944512;1.857194;1.958792;1.961135;2.000705;1.829025;1.973915;1.978816;1.992252;1.914966;1.917735;1.879633;1.891988;1.840455;1.713373;1.680467;1.827612;1.639557;1.484664;1.519296;1.512343;1.405287;1.267799;1.289431;1.146928;1.051643;0.994684;0.977618;0.831761;0.801870;0.757704;0.592238;0.550105;0.446940;0.456179;0.320942;0.226864;0.204494;0.095785;0.077947;0.022920;-0.119413;-0.209649;-0.137286;-0.308713;-0.293155;-0.376072;-0.413120;-0.478110;-0.537154;-0.527008;-0.702507;-0.685619;-0.808182;-0.787219;-0.812938;-0.844244;-0.935706;-0.905931;-0.898508;-0.935140;-0.978857;-1.045526;-0.978668;-1.082975;-1.080367;-1.025777;-1.066142;-1.065171;-1.075751;-1.126556;-1.048257;-1.051794;-1.083326;-1.080637;-1.056313;-0.980346;-1.014419;-1.035591;-0.945480;-0.951111;-0.944710;-0.889883;-0.874445;-0.855453;-0.834784;-0.854241;-0.775639;-0.729262;-0.655683;-0.627306;-0.651020;-0.608713;-0.457106;-0.501428;-0.416498;-0.420825;-0.390224;-0.262373;-0.234976;-0.205204;-0.237930;-0.095598;-0.108448;-0.054159;-0.005802;0.078820;0.031024;0.176139;0.188317;0.284504;0.224697;0.242710;0.275701;0.270188;0.294860;0.342538;0.407813;0.318542;0.320606;0.266378;0.327554;0.309538;0.258800;0.246149;0.207931;0.214614;0.242733;0.135742;0.151861;0.131155;0.107472;0.010782;-0.098216;-0.068134;-0.128391;-0.179975;-0.263206;-0.309046;-0.371204;-0.491068;-0.487588;-0.627765;-0.686554;-0.737961;-0.720621;-0.857071;-0.982016;-0.971201;-1.059172;-1.073078;-1.150116;-1.254038;-1.296523;-1.378750;-1.487151;-1.462358;-1.601340;-1.563455;-1.637590;-1.611705;-1.756164
-1.132691;-1.099229;-1.124898;-1.066365;-1.027010;-1.058312;-0.994429;-0.979174;-1.001002;-0.971205;-0.930803;-0.898882;-0.876397;-0.849375;-0.812207;-0.800964;-0.761954;-0.780238;-0.727122;-0.735413;-0.654275;-0.679101;-0.657252;-0.600058;-0.565040;-0.575846;-0.554419;-0.482305;-0.552253;-0.500049;-0.468529;-0.428534;-0.406486;-0.388471;-0.382255;-0.403217;-0.381388;-0.362411;-0.303556;-0.342339;-0.304379;-0.293784;-0.289590;-0.318945;-0.263005;-0.295250;-0.290940;-0.318232;-0.304542;-0.307549;-0.272299;-0.245698;-0.249999;-0.313461;-0.239145;-0.296960;-0.273495;-0.237038;-0.262169;-0.205320;-0.231890;-0.225056;-0.255022;-0.254970;-0.222074;-0.224496;-0.203798;-0.209398;-0.195203;-0.177260;-0.184777;-0.123369;-0.135361;-0.063014;-0.036861;-0.052179;-0.015498;0.043018;0.103203;0.128100;0.161693;0.127466;0.244096;0.269861;0.359340;0.393291;0.420012;0.494009;0.551918;0.617566;0.639272;0.711703;0.768805;0.814332;0.911986;0.990375;1.017266;1.104402;1.145175;1.238345;1.264832;1.336281;1.357688;1.454279;1.521396;1.559663;1.588500;1.666932;1.663348;1.704369;1.770496;1.838998;1.826083;1.873021;1.884151;1.894356;1.908154;1.898753;1.909619;1.941626;1.902817;1.902574;1.865188;1.858620;1.855786;1.784607;1.723692;1.676849;1.657029;1.624951;1.586720;1.576553;1.430067;1.413457;1.277078;1.269421;1.166295;1.141468;1.014186;0.980387;0.919143;0.841639;0.764471;0.706908;0.552939;0.492361;0.437479;0.392441;0.319060;0.220323;0.135538;0.033154;-0.017304;-0.102086;-0.159056;-0.232348;-0.280109;-0.349745;-0.396410;-0.457753;-0.526979;-0.633284;-0.595888;-0.663876;-0.773594;-0.780151;-0.768558;-0.882444;-0.885232;-0.907109;-0.979917;-1.005064;-1.061447;-1.025374;-1.040920;-1.169621;-1.116718;-1.172298;-1.207602;-1.181297;-1.249458;-1.250740;-1.265232;-1.257296;-1.266779;-1.329812;-1.289150;-1.315633;-1.324244;-1.333769;-1.318574;-1.323730;-1.368836;-1.353078;-1.358615;-1.387548;-1.376026;-1.369231;-1.417549;-1.406016
-1.753363;-1.738958;-1.719024;-1.748718;-1.721097;-1.733939;-1.670643;-1.698663;-1.651701;-1.705911;-1.668657;-1.707044;-1.641696;-1.641794;-1.661769;-1.608775;-1.579780;-1.536198;-1.543466;-1.554511;-1.488719;-1.539430;-1.454292;-1.486621;-1.479519;-1.481004;-1.350299;-1.404890;-1.397677;-1.345831;-1.319097;-1.302604;-1.254145;-1.146178;-1.136756;-1.164506;-1.156766;-1.111229;-1.046645;-1.039276;-0.985057;-0.920982;-0.983695;-0.922749;-0.899097;-0.895160;-0.822496;-0.771320;-0.745219;-0.676074;-0.667692;-0.650287;-0.605382;-0.559054;-0.464273;-0.478909;-0.437637;-0.349508;-0.377313;-0.321254;-0.334845;-0.208507;-0.232701;-0.201711;-0.170706;-0.121733;-0.091709;-0.081816;0.003361;-0.006077;0.033682;0.038692;0.109581;0.133588;0.116792;0.181831;0.237992;0.197800;0.171902;0.179236;0.241324;0.253301;0.261192;0.216398;0.161446;0.207823;0.299838;0.226364;0.259308;0.204646;0.235650;0.282029;0.196402;0.188671;0.160632;0.165112;0.207885;0.209272;0.191745;0.117763;0.129296;0.101090;0.087977;0.143692;0.126288;0.097828;0.062930;0.066864;0.142376;0.071761;0.077614;0.092558;0.166416;0.217413;0.206525;0.189283;0.196325;0.166143;0.283286;0.276737;0.312380;0.345437;0.353380;0.315264;0.413376;0.461756;0.534123;0.536563;0.581670;0.705749;0.705905;0.778705;0.793134;0.829306;0.918201;0.948335;0.999848;1.083783;1.080818;1.137648;1.234168;1.217887;1.359511;1.328575;1.401510;1.468445;1.484756;1.505532;1.567826;1.596516;1.615589;1.661137;1.620926;1.697037;1.716278;1.738384;1.737630;1.681181;1.679792;1.658928;1.614432;1.659819;1.634012;1.580631;1.561218;1.585908;1.471798;1.409794;1.356604;1.370130;1.291653;1.213493;1.146751;1.082917;1.033733;0.979178;0.890897;0.811245;0.720369;0.640492;0.551264;0.453793;0.429926;0.272772;0.246301;0.135281;0.092541;-0.035646;-0.081476;-0.154724;-0.293267;-0.313134;-0.427093;-0.474057;-0.557111;-0.625151;-0.808364;-0.709668;-0.830799;-0.952960
-1.534987;-1.441339;-1.415380;-1.375317;-1.284628;-1.229733;-1.216300;-1.096207;-1.063477;-1.004676;-0.976578;-0.806361;-0.811834;-0.786445;-0.694308;-0.652258;-0.585498;-0.502526;-0.399474;-0.336075;-0.238424;-0.175549;-0.092756;-0.077155;0.048245;0.136354;0.168225;0.213057;0.271683;0.290217;0.383432;0.455672;0.462239;0.571916;0.609583;0.602723;0.651363;0.749197;0.765217;0.761720;0.742429;0.873878;0.833686;0.926582;0.929513;0.956679;0.972746;1.032134;1.022650;0.993870;1.001199;1.025449;0.960279;0.940847;0.990729;1.012602;1.037255;0.990404;0.985497;0.968379;0.980044;0.898123;0.954613;0.887790;0.887851;0.946839;0.940234;0.887037;0.878611;0.906766;0.878325;0.937155;0.865461;0.815059;0.846907;0.884455;0.798345;0.824830;0.779705;0.893949;0.843027;0.835896;0.755178;0.844341;0.775904;0.782581;0.789285;0.776077;0.804848;0.833034;0.847931;0.816885;0.847306;0.798220;0.796601;0.868755;0.966660;0.841513;0.871053;0.905208;0.914841;0.893179;0.944970;0.840238;0.885607;1.000508;0.869255;0.858358;0.892022;0.877706;0.804294;0.983322;0.880229;0.971045;0.863106;0.894890;0.877840;0.846219;0.859831;0.833468;0.848321;0.832384;0.790114;0.713569;0.695203;0.750712;0.674427;0.639317;0.597905;0.521704;0.536238;0.479278;0.376460;0.378415;0.372419;0.326442;0.309624;0.247673;0.168392;0.129641;0.143401;0.032428;-0.026426;-0.042155;-0.065589;-0.152190;-0.211597;-0.321981;-0.354663;-0.367813;-0.380115;-0.399308;-0.453089;-0.557764;-0.636377;-0.621671;-0.620406;-0.754098;-0.726356;-0.815785;-0.847212;-0.938255;-0.967823;-0.940623;-1.072641;-1.075661;-1.091411;-1.203028;-1.158862;-1.141854;-1.210382;-1.294981;-1.390754;-1.363262;-1.381933;-1.376564;-1.412225;-1.538456;-1.525323;-1.606546;-1.586615;-1.657958;-1.621547;-1.707355;-1.734868;-1.718110;-1.813435;-1.824514;-1.844352;-1.909466;-1.871420;-1.925044;-1.900761;-1.936959;-1.961639;-1.948066;-1.992478;-2.067296;-2.063413;-2.057286
-1.695192;-1.686596;-1.711782;-1.663065;-1.660131;-1.665503;-1.600935;-1.630295;-1.576613;-1.631022;-1.606981;-1.588495;-1.584750;-1.565759;-1.566423;-1.489271;-1.555872;-1.542187;-1.511680;-1.411797;-1.457637;-1.485882;-1.435138;-1.414238;-1.391860;-1.379311;-1.409197;-1.264187;-1.294710;-1.257145;-1.264560;-1.173789;-1.168181;-1.187789;-1.156840;-1.120633;-1.141606;-1.101714;-1.086384;-1.052009;-1.018401;-0.941673;-0.954435;-0.931627;-0.868021;-0.860426;-0.865606;-0.807567;-0.798201;-0.729017;-0.765544;-0.697122;-0.603986;-0.651374;-0.556640;-0.546413;-0.503027;-0.489890;-0.427460;-0.453443;-0.317904;-0.340034;-0.305708;-0.235410;-0.225559;-0.198095;-0.145061;-0.159488;-0.093325;-0.121484;-0.042981;0.012247;0.027014;-0.009562;0.147240;0.126837;0.124922;0.246988;0.241455;0.294028;0.280204;0.337239;0.360510;0.368327;0.395836;0.428894;0.421384;0.465249;0.519686;0.532452;0.535348;0.601407;0.699943;0.615879;0.625250;0.706041;0.724350;0.768633;0.766688;0.809653;0.797416;0.836382;0.893316;0.913208;0.899305;0.898871;0.963434;0.951691;0.950772;1.033655;1.020640;1.033814;1.022140;1.080013;1.108409;1.120856;1.082933;1.135105;1.126581;1.144772;1.210020;1.171519;1.286176;1.227651;1.217114;1.229955;1.279560;1.318050;1.268237;1.214886;1.329143;1.264389;1.323523;1.270340;1.292607;1.266621;1.274571;1.254633;1.318843;1.276886;1.316989;1.262400;1.333198;1.256512;1.279577;1.232106;1.175964;1.257674;1.219322;1.200746;1.201281;1.179430;1.109669;1.093002;1.062923;1.046523;1.011060;1.009878;0.968983;0.936466;0.899466;0.866595;0.861626;0.783009;0.686085;0.698524;0.647202;0.584519;0.501115;0.414055;0.430048;0.336610;0.280833;0.199049;0.145411;0.109500;0.066788;0.029187;-0.048003;-0.157871;-0.245467;-0.255604;-0.392704;-0.379778;-0.451557;-0.488994;-0.564307;-0.652844;-0.692320;-0.734100;-0.801470;-0.891410;-0.892192;-0.960105;-1.022131;-1.064961;-1.086826;-1.128172;-1.210911;-1.211703
-1.660146;-1.622834;-1.656578;-1.565379;-1.548271;-1.556489;-1.564456;-1.519748;-1.510216;-1.427504;-1.406112;-1.350317;-1.387473;-1.305216;-1.315791;-1.249329;-1.238832;-1.113070;-1.196641;-1.139192;-1.086565;-1.073941;-1.079014;-1.033796;-1.023071;-0.947622;-0.913162;-0.822170;-0.843252;-0.770066;-0.754809;-0.737499;-0.685029;-0.663919;-0.604993;-0.578965;-0.574338;-0.510937;-0.454628;-0.456146;-0.395147;-0.363376;-0.272788;-0.271895;-0.263349;-0.209666;-0.221325;-0.189197;-0.066040;-0.036147;-0.063643;0.037983;-0.032560;0.015342;0.031972;0.098351;0.145091;0.211913;0.236063;0.240974;0.257868;0.277946;0.305822;0.320321;0.387932;0.440156;0.435796;0.425629;0.435678;0.479794;0.579970;0.575471;0.613780;0.625434;0.715170;0.671282;0.694534;0.713219;0.820470;0.827607;0.843841;0.880831;0.927598;1.008445;0.924286;1.051619;1.006878;1.040308;1.023124;1.067973;1.047556;1.089829;1.091849;1.154460;1.183421;1.241668;1.191408;1.254401;1.282171;1.258449;1.362199;1.316235;1.331164;1.349406;1.341138;1.376447;1.377769;1.368758;1.393342;1.427633;1.384527;1.414419;1.336567;1.392961;1.362413;1.332961;1.407784;1.471533;1.441630;1.302719;1.358459;1.338019;1.355528;1.272904;1.269629;1.258067;1.214491;1.211676;1.143928;1.153487;1.110087;1.043254;0.974536;0.985798;0.964181;0.881734;0.849347;0.840075;0.808284;0.727841;0.714778;0.660195;0.606679;0.560314;0.522085;0.515926;0.403452;0.413666;0.336657;0.309010;0.232727;0.181912;0.157832;0.062645;0.038625;0.005492;-0.058365;-0.048888;-0.164674;-0.192378;-0.241629;-0.302998;-0.355006;-0.365535;-0.408984;-0.466251;-0.521334;-0.468389;-0.600119;-0.619893;-0.683222;-0.766877;-0.754498;-0.768009;-0.833336;-0.899704;-0.987411;-0.988876;-1.008365;-1.020785;-1.075225;-1.126127;-1.204423;-1.166760;-1.275903;-1.285527;-1.345126;-1.389353;-1.380094;-1.415635;-1.445249;-1.481170;-1.536485;-1.548503;-1.557782;-1.527251;-1.604343;-1.649462;-1.639439;-1.654579
-2.283553;-2.229182;-2.198722;-2.115384;-2.119014;-2.031517;-2.009372;-1.983715;-1.904144;-1.866106;-1.836862;-1.710139;-1.696105;-1.652645;-1.582526;-1.580051;-1.477594;-1.555401;-1.462036;-1.383896;-1.253786;-1.206718;-1.134053;-1.140672;-1.108083;-0.988290;-0.897639;-0.880132;-0.822202;-0.790622;-0.639207;-0.726815;-0.708155;-0.619577;-0.528757;-0.535751;-0.382606;-0.373400;-0.350978;-0.324782;-0.313060;-0.200476;-0.177411;-0.230378;-0.125384;-0.169082;0.014515;-0.068334;0.004098;0.038344;0.056413;0.132076;0.121749;0.285129;0.179209;0.278438;0.215508;0.278318;0.251194;0.297361;0.407881;0.346681;0.353491;0.342125;0.338719;0.447093;0.440501;0.414407;0.508058;0.557221;0.521261;0.473475;0.563572;0.614909;0.566306;0.618487;0.684955;0.598235;0.676026;0.571639;0.681477;0.618794;0.642251;0.693654;0.810882;0.772933;0.787946;0.706866;0.765963;0.717442;0.795039;0.761883;0.798120;0.840399;0.771680;0.830195;0.836754;0.837024;0.854638;0.880318;0.856402;0.924122;0.971671;0.954638;0.942895;0.887668;0.966282;0.939000;0.959108;0.975882;1.005296;1.008665;1.082412;0.953681;0.919097;0.979927;0.987033;1.130491;1.048328;1.000871;1.100208;1.013340;1.204966;1.083457;1.121030;1.103132;1.000640;1.003075;1.005053;1.019588;1.026989;1.011087;1.109938;1.117458;1.059491;1.054631;0.999380;0.988425;0.953279;0.882033;0.953078;0.998142;0.978835;0.950736;0.950961;0.958515;0.911323;0.881924;0.864798;0.873371;0.862572;0.692668;0.777505;0.844531;0.628364;0.604916;0.606207;0.499188;0.562320;0.525030;0.451719;0.442946;0.285114;0.295357;0.215122;0.202183;0.066685;0.064357;0.015675;-0.046186;-0.216248;-0.146665;-0.205219;-0.352757;-0.405305;-0.334096;-0.541097;-0.622587;-0.629470;-0.694789;-0.842780;-0.870722;-0.898035;-1.071776;-1.023479;-1.066960;-1.307246;-1.244556;-1.361331;-1.372774;-1.502784;-1.601824;-1.589177;-1.629201;-1.584765;-1.837676;-1.832154;-1.893506;-1.825592;-1.991400
-0.467973;-0.439731;-0.363325;-0.333236;-0.227096;-0.125358;-0.095852;0.020353;0.036140;0.117188;0.254028;0.275714;0.412956;0.442846;0.536159;0.613043;0.716889;0.766927;0.842854;0.936598;1.023492;1.077313;1.237688;1.227741;1.343222;1.388708;1.433923;1.506559;1.541950;1.673143;1.688099;1.774385;1.768041;1.770239;1.857590;1.878643;1.913224;1.963270;1.961465;1.924277;2.005325;2.008570;1.972315;1.949495;1.986591;1.951637;1.958924;1.911285;1.823827;1.793262;1.789569;1.747943;1.710980;1.665070;1.556302;1.510105;1.483248;1.417085;1.327731;1.287548;1.192581;1.156398;1.062480;0.996376;0.938001;0.808611;0.792731;0.708406;0.642122;0.595110;0.540449;0.449569;0.346229;0.314164;0.280484;0.200079;0.152053;0.073538;0.048383;-0.030621;-0.011579;-0.053128;-0.134655;-0.099326;-0.234881;-0.192999;-0.237428;-0.248388;-0.246851;-0.305994;-0.325727;-0.388783;-0.383503;-0.398388;-0.372658;-0.399025;-0.396629;-0.445342;-0.463018;-0.447361;-0.387830;-0.381009;-0.407197;-0.400640;-0.392235;-0.390322;-0.435033;-0.397792;-0.377970;-0.350616;-0.411946;-0.387707;-0.369967;-0.337398;-0.345412;-0.367574;-0.362669;-0.354995;-0.399374;-0.408304;-0.342705;-0.344720;-0.376553;-0.342433;-0.421417;-0.411124;-0.413885;-0.355107;-0.428679;-0.414816;-0.405012;-0.458642;-0.432514;-0.445168;-0.512411;-0.508270;-0.504327;-0.552868;-0.529233;-0.523943;-0.561108;-0.613544;-0.613274;-0.625728;-0.647383;-0.622143;-0.654286;-0.667103;-0.686043;-0.728558;-0.704716;-0.750784;-0.746132;-0.826188;-0.798226;-0.796061;-0.839787;-0.799085;-0.853266;-0.845845;-0.873180;-0.898148;-0.955912;-0.974098;-0.959314;-0.933708;-0.995365;-1.039855;-1.033805;-1.044618;-1.028862;-1.085901;-1.057271;-1.068024;-1.095246;-1.091561;-1.097613;-1.150893;-1.144281;-1.129964;-1.125713;-1.156261;-1.165427;-1.177032;-1.159950;-1.186958;-1.213984;-1.224887;-1.237102;-1.216923;-1.257298;-1.310179;-1.263883;-1.296836;-1.305851;-1.264923;-1.302351;-1.323319;-1.322623;-1.272189
-1.117180;-1.135645;-1.155477;-1.112503;-1.105829;-1.128978;-1.155966;-1.139698;-1.102943;-1.099680;-1.151098;-1.143247;-1.126922;-1.121236;-1.101661;-1.090601;-1.100054;-1.108119;-1.131247;-1.055957;-1.122069;-1.105483;-1.096400;-1.095872;-1.092599;-1.100963;-1.089134;-1.107416;-1.088222;-1.078039;-1.052354;-1.078666;-1.100939;-1.084154;-1.058116;-1.075001;-1.055177;-1.078363;-1.058483;-1.046284;-1.090610;-1.049958;-1.070485;-1.040022;-1.041794;-1.040430;-1.025631;-1.068051;-1.012805;-1.028920;-1.033059;-1.023844;-0.967444;-1.003019;-0.998897;-1.005928;-0.979709;-0.942693;-0.970548;-0.914511;-0.934896;-0.892509;-0.905692;-0.870540;-0.874426;-0.870955;-0.815913;-0.790743;-0.761482;-0.770880;-0.721256;-0.691140;-0.689258;-0.630251;-0.625168;-0.538929;-0.546113;-0.511524;-0.521228;-0.432034;-0.383989;-0.328998;-0.329687;-0.295485;-0.230876;-0.167111;-0.097151;-0.062093;-0.004407;0.069995;0.113131;0.170450;0.195552;0.291388;0.350887;0.429467;0.473943;0.507034;0.598942;0.650721;0.702670;0.747652;0.810207;0.881659;0.919642;1.050652;1.082827;1.121812;1.152319;1.175064;1.261266;1.288669;1.324893;1.384658;1.409766;1.467585;1.474709;1.518304;1.585359;1.550385;1.563141;1.611251;1.621314;1.669112;1.637040;1.644737;1.643282;1.673543;1.675332;1.637259;1.655114;1.643254;1.658121;1.624567;1.624086;1.587315;1.583141;1.537503;1.504941;1.489210;1.449401;1.434528;1.383470;1.393986;1.380965;1.294260;1.298208;1.233903;1.202315;1.175230;1.148867;1.058261;1.071747;1.027047;0.992445;0.955322;0.894552;0.873988;0.820236;0.799963;0.759113;0.710697;0.674463;0.660050;0.560967;0.531875;0.484116;0.423224;0.401836;0.320972;0.320065;0.284714;0.229352;0.207602;0.166220;0.079657;0.078001;0.036942;-0.045634;-0.068893;-0.120632;-0.158248;-0.192447;-0.222513;-0.280349;-0.298330;-0.338616;-0.365985;-0.414164;-0.505032;-0.468844;-0.535321;-0.572096;-0.564038;-0.613834;-0.636259;-0.668658;-0.705653;-0.727410;-0.709615
-1.917799;-1.913042;-1.912774;-1.861939;-1.841505;-1.802757;-1.806015;-1.785382;-1.772716;-1.684410;-1.702577;-1.646086;-1.656668;-1.655162;-1.567672;-1.571374;-1.511729;-1.501497;-1.390188;-1.407976;-1.382307;-1.344179;-1.316800;-1.211008;-1.236242;-1.181169;-1.097369;-1.139326;-1.014718;-0.957553;-0.974860;-0.893696;-0.844207;-0.715714;-0.680683;-0.684146;-0.635033;-0.513744;-0.410337;-0.414615;-0.290135;-0.304434;-0.179566;-0.104106;-0.084886;0.016090;0.033541;0.118100;0.173052;0.233720;0.398104;0.448700;0.493502;0.677765;0.727858;0.732537;0.750742;0.913668;0.985905;1.085275;1.187473;1.183891;1.267722;1.278185;1.344941;1.384379;1.430959;1.508553;1.579032;1.583516;1.626719;1.687405;1.683881;1.677890;1.779868;1.756939;1.758922;1.814131;1.796028;1.747254;1.766979;1.747274;1.748024;1.711404;1.697731;1.558568;1.574536;1.595309;1.505633;1.482038;1.353070;1.327065;1.177969;1.161078;1.156209;1.046257;1.012042;0.914866;0.834577;0.768660;0.723149;0.601848;0.493815;0.454568;0.312548;0.293127;0.222363;0.216899;0.105228;0.069910;-0.023432;-0.037018;-0.134585;-0.172330;-0.237538;-0.207732;-0.253464;-0.322343;-0.352313;-0.300523;-0.394674;-0.408096;-0.369298;-0.398312;-0.357983;-0.388956;-0.401098;-0.356709;-0.404906;-0.352621;-0.311734;-0.314927;-0.279270;-0.251383;-0.212091;-0.162076;-0.185861;-0.125387;-0.026421;0.019179;-0.026788;0.071321;0.095145;0.129185;0.228908;0.185489;0.182020;0.293095;0.331059;0.333218;0.372861;0.423290;0.411688;0.486584;0.516688;0.453270;0.445685;0.509372;0.468297;0.473926;0.447752;0.538012;0.549822;0.488875;0.436469;0.368329;0.400159;0.309855;0.346837;0.251587;0.190124;0.173849;0.154999;0.082431;0.039353;-0.010327;-0.125932;-0.105684;-0.274163;-0.298824;-0.327588;-0.366860;-0.456880;-0.501002;-0.601694;-0.595557;-0.716715;-0.741060;-0.850937;-0.970146;-0.995521;-1.023771;-1.085023;-1.152533;-1.229812;-1.267742;-1.325658;-1.411390;-1.450427;-1.532509
-1.053108;-1.015619;-0.995652;-0.988292;-0.994567;-1.038825;-0.993217;-1.011864;-0.961744;-0.989267;-0.960959;-0.952798;-0.949799;-0.915251;-0.950050;-0.909761;-0.940784;-0.881144;-0.887046;-0.859172;-0.820156;-0.811450;-0.812574;-0.785488;-0.769437;-0.745134;-0.758382;-0.678691;-0.682817;-0.606893;-0.576556;-0.547214;-0.526132;-0.497894;-0.439423;-0.405364;-0.377178;-0.318385;-0.264856;-0.196023;-0.140713;-0.118810;-0.061307;0.010383;0.078855;0.148713;0.216237;0.278364;0.334293;0.385248;0.497990;0.565929;0.592198;0.670867;0.770779;0.797987;0.912655;0.975379;1.047450;1.105859;1.168645;1.267208;1.313974;1.398116;1.454071;1.453689;1.579216;1.641465;1.688586;1.695359;1.724979;1.779808;1.836266;1.878092;1.905075;1.933482;1.934140;1.964477;1.993060;1.951447;1.984991;1.978675;1.990532;1.929495;1.923897;1.938554;1.883311;1.865443;1.847405;1.815610;1.717155;1.705236;1.610695;1.593299;1.509956;1.471375;1.429850;1.352984;1.289884;1.216224;1.137668;1.075315;1.006650;0.939121;0.879724;0.810594;0.727856;0.652139;0.580522;0.511798;0.471668;0.392628;0.319130;0.254550;0.166217;0.143544;0.084302;0.046677;-0.044498;-0.073841;-0.149513;-0.156544;-0.204237;-0.265468;-0.268897;-0.311106;-0.344344;-0.403144;-0.410071;-0.429498;-0.486732;-0.488702;-0.522003;-0.574846;-0.563539;-0.601050;-0.595058;-0.614716;-0.625125;-0.617356;-0.656959;-0.660825;-0.672478;-0.637789;-0.631579;-0.665308;-0.660540;-0.679559;-0.682188;-0.678922;-0.706875;-0.690228;-0.692919;-0.697464;-0.696327;-0.723025;-0.677552;-0.733569;-0.735934;-0.738142;-0.708501;-0.735144;-0.738053;-0.685589;-0.749855;-0.734920;-0.750270;-0.794663;-0.749755;-0.735437;-0.760587;-0.793939;-0.774559;-0.797126;-0.766437;-0.820481;-0.773052;-0.826118;-0.796081;-0.820392;-0.834794;-0.818275;-0.859685;-0.894515;-0.880563;-0.879599;-0.887439;-0.918001;-0.901124;-0.916795;-0.930573;-0.928952;-0.929436;-0.930746;-0.932649;-0.952975;-0.927569;-0.951104;-0.960948;-1.000047
-1.291886;-1.226315;-1.174823;-1.142166;-1.125530;-1.075212;-1.148894;-1.068755;-1.071573;-1.022625;-1.003093;-0.952807;-0.939008;-0.899664;-0.834112;-0.783590;-0.786270;-0.788311;-0.734922;-0.697530;-0.671859;-0.682650;-0.608220;-0.547983;-0.553393;-0.493962;-0.499903;-0.477153;-0.424174;-0.415499;-0.371277;-0.356065;-0.322060;-0.297071;-0.301189;-0.285144;-0.281590;-0.276291;-0.294277;-0.268274;-0.256549;-0.249870;-0.325048;-0.299518;-0.288575;-0.263372;-0.265216;-0.295275;-0.260459;-0.326807;-0.303632;-0.341618;-0.350446;-0.349454;-0.349465;-0.434126;-0.414104;-0.443287;-0.433378;-0.471201;-0.434085;-0.491411;-0.516004;-0.495703;-0.457231;-0.465166;-0.441651;-0.459802;-0.460183;-0.482939;-0.464146;-0.489935;-0.447252;-0.462740;-0.418486;-0.424210;-0.356291;-0.334723;-0.350731;-0.307201;-0.241153;-0.214274;-0.163521;-0.145464;-0.072744;-0.049447;0.038537;0.093587;0.161037;0.227345;0.330469;0.349500;0.450901;0.524943;0.608828;0.642369;0.735616;0.824255;0.895103;0.973577;1.052028;1.102442;1.180489;1.253031;1.288798;1.414814;1.466488;1.517115;1.583385;1.618867;1.620123;1.729268;1.817588;1.828704;1.852089;1.902499;1.933496;1.967172;1.930601;2.017635;1.968471;1.995251;2.004426;1.962522;1.925089;1.938535;1.904323;1.897618;1.872251;1.819027;1.797618;1.748332;1.721361;1.607132;1.555050;1.504201;1.471772;1.403318;1.295894;1.258156;1.143811;1.078628;1.031746;0.948843;0.895151;0.810972;0.768916;0.690766;0.595079;0.510496;0.446537;0.371838;0.310505;0.200901;0.194810;0.138407;0.036118;-0.085489;-0.077974;-0.175997;-0.245129;-0.302626;-0.308384;-0.358569;-0.461589;-0.507485;-0.547626;-0.574162;-0.639829;-0.749974;-0.755610;-0.820652;-0.834292;-0.851367;-0.890164;-0.948338;-0.947657;-0.963818;-0.985678;-1.051358;-1.070300;-1.060171;-1.076661;-1.147121;-1.162023;-1.173995;-1.194292;-1.267250;-1.275699;-1.238884;-1.282987;-1.306278;-1.304532;-1.313620;-1.350250;-1.352479;-1.362210;-1.407616;-1.389757;-1.373667
-1.965108;-1.853768;-1.853105;-1.900690;-1.868610;-1.829526;-1.840784;-1.821082;-1.853840;-1.770875;-1.802623;-1.782323;-1.802164;-1.719382;-1.756284;-1.617145;-1.667928;-1.679910;-1.622054;-1.564508;-1.544969;-1.472392;-1.419535;-1.436998;-1.456890;-1.399154;-1.348524;-1.273181;-1.324385;-1.297943;-1.276420;-1.180460;-1.175811;-1.113141;-1.090356;-1.086255;-0.947427;-1.005289;-0.875053;-0.803701;-0.868903;-0.794924;-0.764167;-0.679698;-0.609060;-0.542839;-0.494244;-0.452409;-0.416808;-0.371409;-0.290923;-0.256722;-0.188257;-0.259065;-0.125072;-0.044843;0.006108;0.032025;0.136354;0.083763;0.272385;0.288934;0.301808;0.420305;0.402583;0.460692;0.561878;0.584088;0.622666;0.637425;0.737571;0.680629;0.810221;0.869370;0.837280;0.897024;0.903051;0.913287;0.966006;0.977944;1.034680;1.019687;1.007662;1.097910;1.036467;1.112518;1.132712;1.060202;1.179849;1.137611;1.091018;1.132904;1.151419;1.067678;1.119419;1.126460;1.150079;1.142384;1.086030;1.123789;1.086561;1.108385;1.065455;1.050153;1.052090;1.079918;0.938700;0.955300;1.008484;0.970085;0.929131;0.985782;0.901666;0.924527;0.928247;0.968975;0.926425;0.949069;0.914744;0.936110;0.783582;0.909817;0.872702;0.842312;0.833288;0.831694;0.833425;0.811887;0.874144;0.882633;0.874958;0.795688;0.844244;0.800604;0.793904;0.862755;0.766118;0.796417;0.871827;0.853313;0.764000;0.831120;0.810349;0.767472;0.786483;0.812194;0.876542;0.739639;0.841838;0.684284;0.714690;0.689911;0.758515;0.653723;0.648427;0.663175;0.627919;0.545322;0.576089;0.532221;0.503534;0.453450;0.422774;0.394211;0.394297;0.265883;0.236272;0.195817;0.186411;0.111329;0.093451;-0.015525;-0.041290;-0.066110;-0.176917;-0.337278;-0.321017;-0.343096;-0.457759;-0.457916;-0.492285;-0.516127;-0.700568;-0.639153;-0.698314;-0.766575;-0.879233;-0.855286;-0.948408;-0.972100;-1.006197;-1.078617;-1.148856;-1.147787;-1.254168;-1.283577;-1.293758;-1.403852;-1.453909;-1.395727
-1.220886;-1.207033;-1.158374;-1.182255;-1.092833;-1.055457;-1.008434;-1.025932;-0.985408;-0.947723;-0.932904;-0.943107;-0.882384;-0.844085;-0.793382;-0.806217;-0.757268;-0.655433;-0.650298;-0.639315;-0.562855;-0.507870;-0.516490;-0.485834;-0.365121;-0.357130;-0.329320;-0.292719;-0.286069;-0.189764;-0.146875;-0.112491;-0.060006;-0.021192;0.040097;0.052968;0.109409;0.128956;0.183763;0.266016;0.306749;0.282119;0.387700;0.393306;0.448773;0.505523;0.561820;0.598011;0.613102;0.673279;0.706118;0.784510;0.785894;0.885010;0.873602;0.952907;0.952651;0.989608;1.007714;1.097847;1.122980;1.102167;1.171461;1.260333;1.245581;1.265987;1.324997;1.368795;1.434609;1.385379;1.416232;1.491195;1.463603;1.490203;1.494527;1.551815;1.529894;1.531784;1.513468;1.550194;1.567023;1.549670;1.559334;1.538403;1.501307;1.514183;1.534663;1.498586;1.503143;1.454905;1.486473;1.433000;1.378142;1.380380;1.328256;1.338138;1.287083;1.250061;1.214370;1.221179;1.157937;1.156948;1.099372;1.023736;1.027212;0.974278;0.950066;0.926810;0.837327;0.799044;0.791959;0.711926;0.709385;0.637128;0.676431;0.595979;0.555705;0.519313;0.471042;0.414682;0.387243;0.323209;0.336995;0.249718;0.220734;0.174372;0.149724;0.069937;0.068219;0.031189;-0.024322;-0.038387;-0.081638;-0.149452;-0.156701;-0.195903;-0.189592;-0.296053;-0.315388;-0.369181;-0.360739;-0.396028;-0.453513;-0.470007;-0.537351;-0.562583;-0.581686;-0.593814;-0.628648;-0.679688;-0.682836;-0.760909;-0.787128;-0.799392;-0.823251;-0.871930;-0.849157;-0.883039;-0.889361;-0.931722;-0.926990;-0.935316;-1.006292;-1.034324;-1.065049;-1.070469;-1.101137;-1.117993;-1.095620;-1.145929;-1.157188;-1.167157;-1.199034;-1.205713;-1.190638;-1.196366;-1.235860;-1.239124;-1.260030;-1.283953;-1.305608;-1.301046;-1.336496;-1.329254;-1.368111;-1.389104;-1.365688;-1.418664;-1.388072;-1.342848;-1.380329;-1.398680;-1.419296;-1.407142;-1.434213;-1.478263;-1.458893;-1.445047;-1.463317;-1.442465
-1.426937;-1.330190;-1.300178;-1.188094;-1.187611;-1.102704;-1.047624;-1.016984;-0.995312;-0.831333;-0.776287;-0.718782;-0.603367;-0.611604;-0.511831;-0.444369;-0.345561;-0.242352;-0.183788;-0.132961;-0.057531;0.040664;0.138290;0.144826;0.271947;0.310211;0.326972;0.398703;0.440475;0.534664;0.605659;0.580957;0.712711;0.676315;0.699307;0.738526;0.814476;0.808494;0.766252;0.867449;0.879847;0.784179;0.797288;0.806999;0.847277;0.843579;0.826219;0.768503;0.742564;0.741297;0.664613;0.705390;0.600316;0.551835;0.533470;0.479599;0.439667;0.363806;0.333451;0.327504;0.199148;0.098794;0.127833;0.055177;-0.031877;-0.096780;-0.193273;-0.255796;-0.292906;-0.397625;-0.393928;-0.476313;-0.501344;-0.556654;-0.674678;-0.712660;-0.705480;-0.785479;-0.842763;-0.907161;-0.950277;-0.950823;-1.088974;-1.040873;-1.112015;-1.241897;-1.197484;-1.212859;-1.275134;-1.301584;-1.336094;-1.281843;-1.405816;-1.380019;-1.468997;-1.489460;-1.345299;-1.413223;-1.471758;-1.374066;-1.530197;-1.417848;-1.498804;-1.381790;-1.416522;-1.388570;-1.345744;-1.358926;-1.343347;-1.294056;-1.240873;-1.183642;-1.233980;-1.139496;-1.006680;-1.099979;-1.025899;-0.978805;-0.822928;-0.763071;-0.798061;-0.654157;-0.626433;-0.618457;-0.499389;-0.417176;-0.330495;-0.303233;-0.202795;-0.122017;-0.013620;0.127563;0.173326;0.239614;0.346508;0.444178;0.578040;0.650825;0.684495;0.811390;0.796352;0.877435;1.056918;1.167780;1.213657;1.271462;1.373220;1.437588;1.489300;1.616668;1.610698;1.690920;1.727963;1.671163;1.772186;1.781153;1.775200;1.846959;1.835920;1.834045;1.748728;1.815538;1.748541;1.760162;1.757042;1.708274;1.666934;1.649054;1.555839;1.554192;1.377395;1.344870;1.288912;1.240639;1.120749;1.014479;0.954143;0.830133;0.771130;0.723271;0.555199;0.472740;0.334846;0.296431;0.240150;0.108846;0.055492;-0.088962;-0.241151;-0.323593;-0.403004;-0.513929;-0.637077;-0.692717;-0.820813;-0.868141;-0.884980;-0.988346;-1.096015;-1.157183
-1.489979;-1.473315;-1.450635;-1.467101;-1.412467;-1.346911;-1.335582;-1.229229;-1.214293;-1.229951;-1.243584;-1.132875;-1.133799;-1.124501;-1.088274;-0.992328;-1.025806;-0.997435;-0.934233;-0.927648;-0.843730;-0.825494;-0.797749;-0.772884;-0.800906;-0.718823;-0.656995;-0.669947;-0.593812;-0.558115;-0.544818;-0.555701;-0.514913;-0.542139;-0.440465;-0.481644;-0.470193;-0.429343;-0.376705;-0.431220;-0.390762;-0.360391;-0.375676;-0.299839;-0.333436;-0.358420;-0.322600;-0.308208;-0.320445;-0.305281;-0.369682;-0.288537;-0.309834;-0.285524;-0.335177;-0.286373;-0.372519;-0.268974;-0.286038;-0.353748;-0.323087;-0.327160;-0.307555;-0.328266;-0.273534;-0.289607;-0.274906;-0.264174;-0.244429;-0.241010;-0.258789;-0.176116;-0.218472;-0.194171;-0.137894;-0.087267;-0.099375;-0.110374;-0.091952;-0.080636;0.081787;0.050248;0.076215;0.127368;0.249713;0.239577;0.271975;0.309699;0.333401;0.415976;0.493877;0.604992;0.563444;0.652303;0.735227;0.757517;0.835728;0.889201;0.914802;1.029433;1.086409;1.111153;1.186978;1.255816;1.310556;1.414971;1.455302;1.438292;1.493829;1.503035;1.599817;1.699257;1.677918;1.715026;1.673368;1.738592;1.853198;1.769366;1.846500;1.804390;1.786418;1.855328;1.859763;1.780200;1.804259;1.744380;1.740609;1.784913;1.709824;1.672620;1.689618;1.610836;1.566829;1.529671;1.508267;1.438917;1.386075;1.311391;1.298024;1.236145;1.135123;1.118554;1.100470;0.985012;0.848765;0.840584;0.793764;0.760202;0.649278;0.635639;0.578156;0.506245;0.401845;0.359813;0.267389;0.252841;0.150174;0.160615;0.046200;-0.024831;-0.066225;-0.036325;-0.204193;-0.217055;-0.288023;-0.338872;-0.372568;-0.426101;-0.413408;-0.487845;-0.581160;-0.665902;-0.695473;-0.727187;-0.745864;-0.864723;-0.867288;-0.881822;-0.993708;-0.980979;-1.025826;-1.069475;-1.074571;-1.106023;-1.122691;-1.184884;-1.244110;-1.291461;-1.246896;-1.271551;-1.369549;-1.395531;-1.385624;-1.418879;-1.440865;-1.447719;-1.499164;-1.522550;-1.537401;-1.500920
-1.531905;-1.521352;-1.484284;-1.462399;-1.436075;-1.447778;-1.365815;-1.284734;-1.302787;-1.254980;-1.129043;-1.121429;-1.143933;-1.073344;-0.966973;-0.922409;-0.886797;-0.865339;-0.822254;-0.717378;-0.719912;-0.625021;-0.630704;-0.540706;-0.529385;-0.474518;-0.447438;-0.412550;-0.339624;-0.239314;-0.228445;-0.197806;-0.211583;-0.158901;-0.087625;-0.082128;-0.024764;-0.001226;0.031588;0.021270;0.078113;0.088819;0.137224;0.128054;0.134255;0.140484;0.090879;0.186421;0.148556;0.279071;0.191158;0.197257;0.235506;0.228189;0.166145;0.266297;0.213344;0.213428;0.231839;0.240133;0.272097;0.261335;0.284118;0.305154;0.293979;0.316330;0.348813;0.258485;0.312503;0.277182;0.380957;0.327168;0.370411;0.412600;0.411159;0.396058;0.401666;0.432511;0.449063;0.499937;0.524217;0.567316;0.537859;0.573470;0.604931;0.588198;0.699311;0.733198;0.735569;0.767186;0.770637;0.850818;0.810080;0.919387;0.988292;1.080189;1.076033;1.091364;1.098195;1.171238;1.213376;1.257951;1.274961;1.273825;1.318164;1.357123;1.416443;1.361227;1.437681;1.499169;1.433390;1.457502;1.485231;1.541637;1.520322;1.615863;1.553828;1.538566;1.543332;1.501022;1.530241;1.528866;1.527636;1.481747;1.428390;1.404729;1.369527;1.380979;1.366350;1.272428;1.213534;1.158620;1.133651;1.119268;1.046983;1.043427;0.891928;0.912994;0.834758;0.768196;0.751506;0.669611;0.618301;0.519024;0.488699;0.394145;0.271189;0.253211;0.210151;0.194657;0.143247;-0.003265;-0.083587;-0.133482;-0.199913;-0.245831;-0.280999;-0.349862;-0.386416;-0.501869;-0.466093;-0.611373;-0.615127;-0.667560;-0.801645;-0.774145;-0.780420;-0.915241;-0.913092;-0.980058;-0.976050;-1.059279;-1.109653;-1.158155;-1.136771;-1.157885;-1.279762;-1.296760;-1.354438;-1.289822;-1.406129;-1.438901;-1.514538;-1.508007;-1.544503;-1.516831;-1.592425;-1.592350;-1.635391;-1.688806;-1.649914;-1.651389;-1.666328;-1.767040;-1.781908;-1.781980;-1.883839;-1.805505;-1.873675;-1.854980
-2.272487;-2.157756;-2.032485;-2.032822;-1.978347;-1.828898;-1.707245;-1.661422;-1.589165;-1.628879;-1.516657;-1.401250;-1.213898;-1.123925;-1.172255;-1.009949;-0.966888;-0.866913;-0.784133;-0.722124;-0.645731;-0.374079;-0.395419;-0.284413;-0.123663;-0.089263;-0.046771;0.085207;0.081651;0.242546;0.391562;0.368389;0.365685;0.502833;0.610025;0.614890;0.742105;0.779873;0.869493;0.894334;0.934983;0.926357;1.120335;1.033484;1.142108;1.246884;1.260472;1.179218;1.233858;1.281014;1.304698;1.376805;1.311785;1.364930;1.411016;1.313472;1.344884;1.382252;1.394122;1.282139;1.259772;1.281958;1.354073;1.351242;1.214337;1.230747;1.236206;1.348570;1.208465;1.200787;1.165622;1.134834;1.131070;1.238843;1.152695;1.197961;1.087880;0.921830;0.953208;0.888068;0.979745;0.979039;0.951230;0.821355;0.847614;0.746933;0.632438;0.883959;0.659490;0.710028;0.571927;0.656098;0.571697;0.551587;0.455448;0.388450;0.464221;0.456166;0.383958;0.213706;0.285881;0.305085;0.254350;0.199300;0.064465;0.182241;0.066977;0.175759;0.077621;0.073684;0.079087;0.113490;0.075511;0.052681;0.118790;0.003378;0.027503;-0.043867;0.013660;0.029946;0.022262;-0.004610;0.001614;0.042472;-0.050475;0.050610;-0.010322;-0.059042;0.117415;0.022631;0.034843;0.094968;0.162305;0.156707;0.138112;0.148603;0.191810;0.172631;0.192883;0.236435;0.296264;0.211223;0.274729;0.214729;0.214251;0.352000;0.268355;0.296319;0.271820;0.274133;0.242484;0.341595;0.225807;0.349938;0.200670;0.200429;0.111076;0.176661;0.186665;0.096139;-0.000048;0.012317;0.092469;-0.077951;-0.021173;-0.123661;-0.158678;-0.227044;-0.257818;-0.372056;-0.434972;-0.444810;-0.502659;-0.632795;-0.735209;-0.810416;-0.897945;-0.815437;-1.050545;-0.990684;-1.151156;-1.202106;-1.219734;-1.358683;-1.411344;-1.442214;-1.590323;-1.627107;-1.706168;-1.804049;-1.836198;-2.067229;-1.947362;-2.154659;-2.153831;-2.243603;-2.286104;-2.320698;-2.508425;-2.392404
-1.349722;-1.287079;-1.171358;-1.028412;-1.026999;-0.947329;-0.798728;-0.687997;-0.591357;-0.508051;-0.336535;-0.254901;-0.104819;-0.067115;0.097374;0.204366;0.289791;0.382193;0.485866;0.639064;0.760623;0.846586;0.917923;1.028015;1.130418;1.270320;1.278733;1.379003;1.503568;1.546482;1.666342;1.628906;1.765864;1.838289;1.854796;1.950653;1.889790;1.989433;1.955906;1.991613;2.059780;2.061962;2.133797;2.100156;1.995430;2.035937;2.021358;1.947372;1.898785;1.949639;1.768390;1.771297;1.677504;1.651981;1.567208;1.425726;1.382043;1.300068;1.244970;1.104284;1.055640;0.973735;0.895480;0.838814;0.726534;0.697563;0.514120;0.431084;0.341478;0.262183;0.252140;0.141764;-0.042186;-0.006745;-0.131498;-0.196608;-0.213464;-0.295644;-0.321227;-0.383031;-0.480609;-0.467663;-0.567393;-0.573238;-0.715408;-0.641340;-0.683568;-0.705169;-0.693279;-0.753307;-0.675830;-0.730307;-0.756182;-0.757898;-0.820194;-0.775382;-0.715622;-0.758565;-0.740684;-0.680509;-0.705049;-0.718098;-0.639660;-0.712300;-0.611063;-0.598685;-0.577250;-0.588274;-0.517515;-0.480981;-0.494961;-0.397251;-0.419615;-0.370485;-0.420110;-0.271622;-0.356882;-0.250124;-0.284646;-0.182919;-0.268524;-0.136277;-0.175228;-0.133669;-0.093260;-0.168168;-0.086690;-0.044545;0.007794;-0.025016;0.020315;0.081303;0.060208;0.087395;0.054030;0.091430;0.088887;0.076845;0.097204;0.194865;0.144630;0.084016;0.251837;0.109179;0.171856;0.167622;0.079897;0.126038;0.122181;0.141016;0.095512;0.038098;0.143009;0.124649;0.088233;0.014486;0.008995;-0.071511;-0.060784;-0.026082;-0.044207;-0.167427;-0.157297;-0.107092;-0.201095;-0.339383;-0.325792;-0.453871;-0.436542;-0.484956;-0.486779;-0.557368;-0.499423;-0.719598;-0.652889;-0.753232;-0.853986;-0.862614;-0.976469;-1.004431;-0.971729;-1.114722;-1.199028;-1.187767;-1.266358;-1.327109;-1.383184;-1.448373;-1.504733;-1.509355;-1.616313;-1.686555;-1.728512;-1.695746;-1.797340;-1.869323;-1.824161;-1.918220;-1.919326;-1.909174
-0.939720;-0.961531;-0.946771;-0.947625;-0.914218;-0.870495;-0.860820;-0.877663;-0.827747;-0.798872;-0.757934;-0.719080;-0.672240;-0.683368;-0.658221;-0.645076;-0.579598;-0.575161;-0.512141;-0.480714;-0.463695;-0.438681;-0.395164;-0.368507;-0.311971;-0.301689;-0.276401;-0.208409;-0.192310;-0.121680;-0.109004;-0.023321;-0.014350;0.050253;0.068803;0.104112;0.118271;0.203550;0.263255;0.337944;0.354225;0.389068;0.420489;0.486766;0.521647;0.581734;0.643530;0.668824;0.706717;0.804799;0.822069;0.892431;0.957635;0.982183;1.039277;1.080428;1.139821;1.201499;1.200615;1.248323;1.299079;1.360969;1.355757;1.404505;1.446426;1.500774;1.525005;1.535405;1.595871;1.639144;1.624491;1.670332;1.670533;1.686309;1.698374;1.717913;1.720886;1.736044;1.737575;1.712355;1.721790;1.677540;1.688126;1.685689;1.663189;1.637069;1.610222;1.591625;1.583664;1.518118;1.512952;1.418644;1.452979;1.356029;1.334364;1.304583;1.225944;1.185618;1.156012;1.108168;1.014317;0.976442;0.925549;0.866571;0.865773;0.769098;0.696015;0.631784;0.585740;0.547292;0.478428;0.439868;0.358864;0.326184;0.256188;0.203834;0.175355;0.134613;0.053733;0.013247;0.002002;-0.084827;-0.145565;-0.137855;-0.198359;-0.223776;-0.278246;-0.326907;-0.314877;-0.390511;-0.382695;-0.439461;-0.488553;-0.534317;-0.574547;-0.569710;-0.570419;-0.636697;-0.646547;-0.724873;-0.675698;-0.711589;-0.769855;-0.765203;-0.780666;-0.813196;-0.787150;-0.821568;-0.869821;-0.887493;-0.881149;-0.836732;-0.952775;-0.946503;-0.967076;-0.969775;-0.965592;-0.979067;-1.017760;-0.995924;-1.058754;-1.043720;-1.042518;-1.006885;-1.033486;-1.063067;-1.058315;-1.083531;-1.103017;-1.054618;-1.119854;-1.114436;-1.138197;-1.088653;-1.119966;-1.101978;-1.116851;-1.119112;-1.176028;-1.114687;-1.156530;-1.172014;-1.189458;-1.138964;-1.144626;-1.129315;-1.149451;-1.186126;-1.197969;-1.179399;-1.128778;-1.188641;-1.180999;-1.188140;-1.155683;-1.134834;-1.179041;-1.194942;-1.187140;-1.222002
-1.367348;-1.255502;-1.318245;-1.249848;-1.265672;-1.097148;-1.005273;-0.992201;-0.984681;-0.922111;-0.893541;-0.874497;-0.810394;-0.710763;-0.707198;-0.606752;-0.607569;-0.502213;-0.437573;-0.337207;-0.337662;-0.223447;-0.234179;-0.083075;-0.084186;-0.024888;-0.006872;0.122839;0.200742;0.245176;0.339819;0.325613;0.436945;0.492384;0.580173;0.593365;0.645475;0.696245;0.749225;0.827314;0.923003;0.942749;0.976302;1.090686;1.140685;1.071678;1.156954;1.172941;1.211931;1.279211;1.307395;1.386579;1.403308;1.405386;1.542072;1.505796;1.474685;1.501103;1.608838;1.602101;1.644243;1.675524;1.679902;1.668651;1.698095;1.728895;1.673215;1.695389;1.707361;1.724208;1.759547;1.753895;1.691949;1.686839;1.669662;1.669626;1.655576;1.637731;1.621869;1.597963;1.594190;1.533284;1.515811;1.461937;1.433318;1.349465;1.286816;1.285476;1.185091;1.092270;1.109733;1.045391;0.947562;0.993749;0.855118;0.764447;0.709543;0.705567;0.596573;0.452273;0.495631;0.366988;0.303212;0.199229;0.162550;0.113426;-0.011645;-0.079344;-0.101623;-0.137434;-0.236283;-0.235905;-0.376289;-0.360037;-0.462408;-0.463984;-0.518210;-0.517074;-0.547164;-0.543386;-0.616474;-0.685230;-0.719201;-0.756693;-0.731622;-0.718611;-0.762642;-0.780740;-0.834243;-0.765967;-0.784388;-0.755981;-0.801988;-0.751859;-0.812697;-0.722869;-0.778035;-0.750563;-0.731028;-0.738050;-0.744111;-0.742686;-0.667564;-0.653422;-0.659864;-0.629849;-0.609326;-0.639473;-0.625589;-0.633231;-0.608253;-0.595007;-0.594383;-0.568952;-0.564361;-0.556133;-0.575921;-0.608570;-0.540899;-0.545468;-0.547106;-0.628627;-0.609718;-0.517545;-0.629294;-0.570511;-0.617393;-0.633014;-0.691190;-0.631994;-0.624819;-0.714021;-0.725399;-0.742924;-0.838212;-0.828400;-0.832109;-0.868370;-0.863800;-0.946240;-0.967472;-0.956183;-1.025643;-1.013561;-1.042456;-1.074040;-1.144753;-1.146066;-1.130808;-1.151742;-1.233095;-1.264853;-1.363241;-1.332510;-1.370367;-1.298129;-1.378394;-1.443586;-1.401601;-1.465546
-1.063229;-1.035664;-0.950197;-0.954784;-0.895500;-0.885677;-0.850248;-0.758597;-0.750330;-0.718075;-0.675387;-0.640548;-0.614578;-0.578573;-0.525450;-0.485089;-0.422347;-0.427062;-0.257071;-0.223473;-0.196181;-0.201109;-0.110698;-0.092397;-0.035197;0.013339;0.113605;0.114706;0.168459;0.257460;0.244541;0.325322;0.376688;0.391779;0.465561;0.483800;0.612644;0.619716;0.631193;0.742810;0.786591;0.766299;0.855358;0.884109;0.954926;0.987319;1.032507;1.046508;1.149308;1.127707;1.163582;1.198611;1.237876;1.270057;1.314853;1.322782;1.391581;1.446568;1.410167;1.454226;1.476969;1.481575;1.554368;1.562309;1.594605;1.630540;1.576402;1.606945;1.579190;1.637443;1.636285;1.656086;1.671512;1.647004;1.602275;1.621965;1.593643;1.595659;1.590332;1.626112;1.568318;1.513457;1.484124;1.489274;1.470126;1.403777;1.369198;1.349244;1.300976;1.304295;1.201882;1.196888;1.157757;1.082406;1.051340;0.936416;0.900170;0.865661;0.760794;0.755552;0.725400;0.663883;0.630760;0.560743;0.516999;0.419815;0.369486;0.314025;0.242479;0.216483;0.163893;0.091632;0.044097;0.047936;-0.010331;-0.075184;-0.082881;-0.177115;-0.193761;-0.231504;-0.272731;-0.297297;-0.344205;-0.378684;-0.407896;-0.450456;-0.516913;-0.511585;-0.573219;-0.546175;-0.610728;-0.546536;-0.597706;-0.600682;-0.664911;-0.677676;-0.666413;-0.722511;-0.734552;-0.730650;-0.728656;-0.797229;-0.810015;-0.788810;-0.809763;-0.787236;-0.813896;-0.804999;-0.835638;-0.857748;-0.866151;-0.850542;-0.899680;-0.883907;-0.918103;-0.877869;-0.883709;-0.913133;-0.928258;-1.001883;-0.938461;-1.004612;-0.966657;-0.971001;-0.938675;-1.037877;-1.001170;-1.020469;-0.988150;-1.002861;-1.065239;-1.054863;-1.032433;-1.082984;-1.096735;-1.104594;-1.136149;-1.167393;-1.156483;-1.148647;-1.186830;-1.196308;-1.211021;-1.219177;-1.261397;-1.197986;-1.258939;-1.216999;-1.294516;-1.233117;-1.285126;-1.343238;-1.294669;-1.307405;-1.309140;-1.375787;-1.314078;-1.338420;-1.331813;-1.354653
-1.384329;-1.302384;-1.314796;-1.274368;-1.203715;-1.228862;-1.148523;-1.092675;-1.032983;-1.067692;-0.964220;-0.887784;-0.899272;-0.761898;-0.788162;-0.717201;-0.656173;-0.615376;-0.550853;-0.532458;-0.414349;-0.413626;-0.348844;-0.303689;-0.296535;-0.247105;-0.184887;-0.101775;-0.112684;-0.099859;-0.002309;0.033047;0.051194;0.039547;0.087842;0.125379;0.181378;0.130024;0.152576;0.152188;0.158089;0.235721;0.185360;0.233689;0.156648;0.173253;0.105162;0.093548;0.088292;0.099714;0.040310;0.056086;-0.011888;0.006648;0.015337;-0.099260;-0.079213;-0.191577;-0.215059;-0.243911;-0.245853;-0.315888;-0.409649;-0.369709;-0.415964;-0.474555;-0.541856;-0.526470;-0.534474;-0.610990;-0.646511;-0.692099;-0.748735;-0.746599;-0.802703;-0.836534;-0.825580;-0.964701;-0.968832;-1.002555;-0.935684;-1.068540;-1.020032;-1.058713;-1.043485;-1.105927;-1.173977;-1.166106;-1.209852;-1.196821;-1.213641;-1.172561;-1.189407;-1.168745;-1.158102;-1.156436;-1.163332;-1.164270;-1.164779;-1.206208;-1.149819;-1.151617;-1.045575;-1.107007;-0.992481;-1.057877;-0.982012;-0.954436;-0.921144;-0.918822;-0.850291;-0.800736;-0.778074;-0.697605;-0.656877;-0.576913;-0.593369;-0.535676;-0.443456;-0.472119;-0.348312;-0.305174;-0.291299;-0.154251;-0.040282;-0.064669;0.107639;0.114428;0.280957;0.259351;0.368035;0.500636;0.606644;0.696749;0.747477;0.788919;0.900457;0.975111;1.050586;1.158255;1.233147;1.349394;1.410755;1.449853;1.536149;1.569557;1.626857;1.681924;1.781292;1.835555;1.818915;1.905596;1.934522;1.982611;1.950431;2.095461;2.080721;2.000833;2.055880;2.062021;2.012582;2.071962;1.978057;1.926595;1.892570;1.911434;1.862489;1.789728;1.695394;1.702179;1.561369;1.535859;1.523872;1.318722;1.268721;1.238599;1.189133;1.100292;0.990037;0.849633;0.726827;0.658305;0.619493;0.514032;0.425406;0.282867;0.247899;0.131875;0.044015;-0.053511;-0.130369;-0.255168;-0.384041;-0.360020;-0.490026;-0.649298;-0.686600;-0.760539;-0.783255;-0.937808
-1.865287;-1.820558;-1.679258;-1.648882;-1.660625;-1.612546;-1.560877;-1.555606;-1.502512;-1.363929;-1.373688;-1.374557;-1.237870;-1.252301;-1.147971;-1.147905;-1.035057;-0.985512;-1.047006;-0.971156;-0.926172;-0.838612;-0.787252;-0.784383;-0.702853;-0.677745;-0.595510;-0.615970;-0.544913;-0.455793;-0.564686;-0.456294;-0.440005;-0.402090;-0.372165;-0.364471;-0.320729;-0.358207;-0.299904;-0.329369;-0.251136;-0.253016;-0.273547;-0.277428;-0.276972;-0.274422;-0.287693;-0.285463;-0.346086;-0.257806;-0.257137;-0.283255;-0.370737;-0.408960;-0.432211;-0.450397;-0.423721;-0.402760;-0.502798;-0.475260;-0.481095;-0.613738;-0.612745;-0.600420;-0.554045;-0.593478;-0.606151;-0.677406;-0.614096;-0.696775;-0.702175;-0.651700;-0.694746;-0.721670;-0.627588;-0.598030;-0.663700;-0.628869;-0.635483;-0.654111;-0.530127;-0.478256;-0.606358;-0.510958;-0.408325;-0.503632;-0.375580;-0.427483;-0.302136;-0.348997;-0.233031;-0.149091;-0.129633;-0.029776;-0.014338;0.067037;0.166263;0.159430;0.224019;0.331744;0.418145;0.499297;0.446315;0.578751;0.655284;0.705926;0.708404;0.843611;0.894370;0.949308;1.100370;1.064255;1.206884;1.157263;1.286891;1.297041;1.426856;1.404853;1.418006;1.402168;1.520573;1.551101;1.567316;1.591379;1.613318;1.642194;1.637374;1.642205;1.600981;1.651005;1.725307;1.689315;1.609701;1.661222;1.655380;1.630353;1.663672;1.677766;1.618931;1.615764;1.577165;1.609295;1.569321;1.537669;1.550836;1.531607;1.426161;1.435478;1.447010;1.391569;1.342364;1.335445;1.289330;1.228267;1.127945;1.092314;1.059459;1.082931;0.971822;0.900923;0.881002;0.850404;0.694628;0.699652;0.624848;0.543792;0.543621;0.396178;0.420957;0.303217;0.225348;0.152968;0.137335;0.020173;-0.081150;-0.036559;-0.196776;-0.255492;-0.373589;-0.362860;-0.421326;-0.528834;-0.644686;-0.695814;-0.731032;-0.812154;-0.868502;-1.012887;-1.013562;-1.116547;-1.182621;-1.150982;-1.271784;-1.301392;-1.282987;-1.410163;-1.463093;-1.438003;-1.517824;-1.660988
-1.386347;-1.382178;-1.359857;-1.324167;-1.322368;-1.358152;-1.305650;-1.279857;-1.229481;-1.257251;-1.219565;-1.190420;-1.190087;-1.119338;-1.129684;-1.085583;-1.108316;-1.057495;-0.990581;-0.965155;-0.972153;-0.952055;-0.903053;-0.871847;-0.845101;-0.807552;-0.765086;-0.724908;-0.704102;-0.634138;-0.634417;-0.558268;-0.541964;-0.487065;-0.487629;-0.472254;-0.399900;-0.370253;-0.295662;-0.241797;-0.127797;-0.145145;-0.038235;-0.018492;0.029318;0.102676;0.132190;0.211686;0.289290;0.316339;0.365059;0.458562;0.487671;0.521664;0.654280;0.675126;0.715480;0.819572;0.843911;0.922994;0.956881;1.033261;1.050263;1.088364;1.217456;1.214873;1.220270;1.356662;1.342577;1.414770;1.463733;1.517538;1.565241;1.537824;1.612331;1.633973;1.608091;1.676762;1.700694;1.702316;1.683586;1.706095;1.647561;1.685607;1.745534;1.711863;1.699763;1.636090;1.664308;1.665142;1.615169;1.549077;1.564011;1.518298;1.503899;1.454466;1.463577;1.409931;1.366904;1.348935;1.257828;1.233859;1.160216;1.112031;1.060950;1.062387;1.003786;0.954791;0.905054;0.892268;0.847338;0.772662;0.768294;0.724946;0.601229;0.568528;0.592721;0.566272;0.498563;0.481573;0.449663;0.398660;0.342221;0.308647;0.279950;0.261984;0.208025;0.168127;0.107739;0.081624;0.143983;0.088146;0.027941;0.049240;-0.004615;-0.057531;-0.094487;-0.098953;-0.112987;-0.145034;-0.206402;-0.213632;-0.186000;-0.293232;-0.250078;-0.315045;-0.247411;-0.299992;-0.367068;-0.360906;-0.409960;-0.404056;-0.427729;-0.436668;-0.444263;-0.493806;-0.506413;-0.533168;-0.582435;-0.579696;-0.599220;-0.636072;-0.648676;-0.649099;-0.666908;-0.664329;-0.760773;-0.728431;-0.779710;-0.780478;-0.848490;-0.849688;-0.856295;-0.899731;-0.936928;-0.959913;-0.995060;-0.988994;-1.028011;-1.020283;-1.085105;-1.078957;-1.109518;-1.166605;-1.177756;-1.167736;-1.238537;-1.258976;-1.268291;-1.275024;-1.292767;-1.344368;-1.274410;-1.352299;-1.350407;-1.345090;-1.341329;-1.451162;-1.440296;-1.433066
-0.998705;-1.030975;-0.976816;-0.995957;-0.982921;-1.004862;-1.008664;-0.989081;-0.996947;-1.011276;-1.000037;-0.991313;-1.007588;-0.986958;-0.972553;-1.017486;-1.017902;-0.983892;-1.012250;-1.020616;-0.996867;-0.995393;-0.981107;-0.996982;-0.998500;-0.976039;-1.013034;-1.019239;-0.986456;-0.987201;-1.007637;-0.970989;-1.009448;-0.959308;-0.993720;-0.975886;-0.958717;-0.963556;-0.930043;-0.949221;-0.942380;-0.956243;-0.951967;-0.958118;-0.960618;-0.903685;-0.933318;-0.926554;-0.933333;-0.893738;-0.905654;-0.869212;-0.885493;-0.893872;-0.848306;-0.854136;-0.827295;-0.845890;-0.831224;-0.816025;-0.785585;-0.743102;-0.747741;-0.709594;-0.683074;-0.686389;-0.655198;-0.621982;-0.606879;-0.597559;-0.548542;-0.510203;-0.466915;-0.432477;-0.429747;-0.389676;-0.318850;-0.272773;-0.234917;-0.166688;-0.159827;-0.073723;-0.046945;0.031655;0.061345;0.110149;0.154858;0.202714;0.286068;0.354489;0.436308;0.489038;0.569775;0.631101;0.692067;0.707733;0.809582;0.874635;0.938466;1.004632;1.071194;1.131844;1.189081;1.255635;1.337406;1.368618;1.433600;1.499740;1.549808;1.584962;1.611276;1.659332;1.704653;1.710339;1.750971;1.803517;1.813213;1.853323;1.837890;1.844111;1.848462;1.864850;1.854509;1.832563;1.837482;1.840906;1.813833;1.787097;1.778170;1.770850;1.724104;1.673260;1.635344;1.615582;1.551046;1.542773;1.466855;1.416589;1.361211;1.329378;1.271845;1.205059;1.149759;1.112347;1.034817;0.990632;0.912083;0.865745;0.827668;0.761139;0.722649;0.683253;0.598577;0.547265;0.500717;0.419306;0.364854;0.322996;0.255456;0.204133;0.191548;0.111108;0.107166;0.046592;-0.010694;-0.055862;-0.051785;-0.126587;-0.154791;-0.206709;-0.254935;-0.291012;-0.320651;-0.352152;-0.392222;-0.414222;-0.423758;-0.449725;-0.480847;-0.539224;-0.543212;-0.595678;-0.628805;-0.619708;-0.663914;-0.688658;-0.711911;-0.720731;-0.749753;-0.753774;-0.784366;-0.796988;-0.819083;-0.812972;-0.819204;-0.869418;-0.837758;-0.859138;-0.899166;-0.915707
-1.642520;-1.566005;-1.597440;-1.607260;-1.594612;-1.555750;-1.551620;-1.514100;-1.506227;-1.498998;-1.467155;-1.459215;-1.379680;-1.412988;-1.403288;-1.387358;-1.392556;-1.359724;-1.358437;-1.351597;-1.253705;-1.222566;-1.264335;-1.199292;-1.212085;-1.226489;-1.143619;-1.116108;-1.103962;-1.087908;-1.030597;-1.007576;-1.010130;-1.008657;-0.992815;-0.887998;-0.885957;-0.890775;-0.855913;-0.833228;-0.815520;-0.726092;-0.748333;-0.724419;-0.674086;-0.652098;-0.587985;-0.692121;-0.571838;-0.593650;-0.542302;-0.546638;-0.515079;-0.471688;-0.477096;-0.401258;-0.435151;-0.361329;-0.410232;-0.377369;-0.292820;-0.249964;-0.316804;-0.300977;-0.269022;-0.223286;-0.205084;-0.167364;-0.182871;-0.157743;-0.190309;-0.163633;-0.170155;-0.159772;-0.176048;-0.145098;-0.167458;-0.147385;-0.181863;-0.121228;-0.149193;-0.154549;-0.134454;-0.076512;-0.158686;-0.166604;-0.106433;-0.138403;-0.165430;-0.202620;-0.202811;-0.205309;-0.250225;-0.195121;-0.234525;-0.284014;-0.294332;-0.277997;-0.270921;-0.285382;-0.258567;-0.263755;-0.332197;-0.292772;-0.254074;-0.325664;-0.319653;-0.273901;-0.264007;-0.277451;-0.310382;-0.278458;-0.213889;-0.211389;-0.233117;-0.173718;-0.170292;-0.086890;-0.053612;-0.088026;-0.010929;0.060695;0.053485;0.146998;0.244293;0.242555;0.275779;0.356511;0.484058;0.459498;0.506482;0.662827;0.626282;0.813050;0.866717;0.863988;1.014432;0.967729;1.099996;1.154849;1.219379;1.330850;1.377949;1.420511;1.571539;1.580851;1.660832;1.685096;1.718596;1.741827;1.836419;1.860078;1.889840;1.884724;1.949438;1.960474;1.976822;1.962844;1.954320;1.953915;1.971942;1.912091;1.888698;1.906193;1.878739;1.857357;1.777508;1.766473;1.675862;1.650669;1.528887;1.481428;1.470874;1.330182;1.251921;1.191116;1.166300;1.001368;0.990642;0.804526;0.842276;0.683470;0.641959;0.522376;0.376364;0.343657;0.253979;0.098650;0.061107;-0.049092;-0.203264;-0.168221;-0.290695;-0.326662;-0.478624;-0.529170;-0.664572;-0.683044;-0.767779;-0.802339
-0.642260;-0.559312;-0.519664;-0.472659;-0.408405;-0.378957;-0.299315;-0.244716;-0.171584;-0.115227;-0.019208;0.032480;0.139822;0.193290;0.250869;0.394645;0.438038;0.460605;0.586626;0.618999;0.643148;0.774109;0.827075;0.911106;1.024551;1.029438;1.110628;1.146639;1.235097;1.301977;1.346750;1.414394;1.443097;1.494948;1.525347;1.567921;1.612188;1.654362;1.613815;1.649765;1.713763;1.746411;1.731602;1.721819;1.714012;1.717695;1.703990;1.750713;1.755129;1.711865;1.671532;1.650077;1.691373;1.608372;1.571626;1.548072;1.517522;1.511934;1.487979;1.432175;1.340279;1.329768;1.297711;1.251752;1.265717;1.142889;1.098409;1.088092;1.046107;0.978328;0.978419;0.921950;0.856099;0.852425;0.754939;0.739018;0.702583;0.659717;0.635404;0.589451;0.552651;0.508401;0.446399;0.416368;0.374639;0.348311;0.314190;0.301734;0.254890;0.256725;0.246807;0.212065;0.168812;0.151576;0.122942;0.075260;0.046680;0.082811;0.024004;-0.021968;-0.014217;-0.015776;-0.024533;-0.085134;-0.081446;-0.118288;-0.067707;-0.131378;-0.156668;-0.170946;-0.140165;-0.160408;-0.211628;-0.247290;-0.253581;-0.250666;-0.283829;-0.328925;-0.330306;-0.314093;-0.342730;-0.378352;-0.380209;-0.397574;-0.430637;-0.470511;-0.412456;-0.478462;-0.519099;-0.556551;-0.501922;-0.526610;-0.590117;-0.605357;-0.592190;-0.608933;-0.618957;-0.654430;-0.659759;-0.694031;-0.683579;-0.761261;-0.769320;-0.770867;-0.757408;-0.837377;-0.844955;-0.862330;-0.846999;-0.879105;-0.880538;-0.929670;-0.909261;-0.965502;-0.976450;-0.950238;-1.000299;-1.010709;-1.014253;-1.084393;-1.058582;-1.099313;-1.067062;-1.073978;-1.100486;-1.105611;-1.167145;-1.104524;-1.132341;-1.192440;-1.216216;-1.162873;-1.217807;-1.222626;-1.237603;-1.194575;-1.225535;-1.269548;-1.245210;-1.272883;-1.276190;-1.298927;-1.303634;-1.351007;-1.302293;-1.282589;-1.309593;-1.309677;-1.363699;-1.342981;-1.350461;-1.341784;-1.389726;-1.430150;-1.407877;-1.413840;-1.389707;-1.408504;-1.407456;-1.393600
-1.444407;-1.410565;-1.420174;-1.397839;-1.392482;-1.408406;-1.402692;-1.392879;-1.418094;-1.393843;-1.372161;-1.394317;-1.376957;-1.395580;-1.409012;-1.366258;-1.358822;-1.365017;-1.299979;-1.359410;-1.330581;-1.306971;-1.296742;-1.314356;-1.277780;-1.282145;-1.211897;-1.209401;-1.207721;-1.203151;-1.187828;-1.173792;-1.068778;-1.090287;-1.068865;-1.052149;-1.036304;-0.979755;-0.926523;-0.933401;-0.881687;-0.807460;-0.841429;-0.751522;-0.718054;-0.677883;-0.613104;-0.561992;-0.536549;-0.483233;-0.425073;-0.380901;-0.347093;-0.284252;-0.212753;-0.178930;-0.110512;-0.052412;-0.016998;0.033186;0.094820;0.166877;0.207293;0.259231;0.302211;0.393238;0.438200;0.504798;0.527673;0.557950;0.656650;0.684020;0.715167;0.785165;0.870681;0.848985;0.864020;0.964965;0.985565;1.006867;1.023994;1.063390;1.130775;1.130279;1.113140;1.220784;1.225828;1.283471;1.251558;1.268643;1.281858;1.337111;1.340533;1.376147;1.343908;1.344306;1.392943;1.381750;1.446984;1.413504;1.390373;1.378118;1.408908;1.398935;1.419437;1.413104;1.406972;1.408535;1.372664;1.383363;1.364862;1.354606;1.356490;1.376072;1.375861;1.342254;1.337729;1.301649;1.250941;1.255465;1.245538;1.229525;1.168674;1.177544;1.137656;1.147066;1.085898;1.087340;1.028281;0.985863;0.953688;0.971511;0.917820;0.838763;0.863013;0.837864;0.800362;0.757562;0.760141;0.652277;0.611557;0.632489;0.536567;0.526164;0.491574;0.467288;0.431116;0.380399;0.324554;0.315602;0.277774;0.224951;0.207363;0.127543;0.108393;0.091312;0.041645;0.003132;0.008933;-0.072781;-0.094115;-0.098682;-0.197048;-0.205327;-0.257871;-0.253057;-0.271116;-0.374880;-0.414864;-0.407346;-0.458042;-0.503719;-0.568025;-0.564865;-0.598713;-0.620040;-0.687580;-0.677675;-0.712203;-0.771401;-0.791631;-0.795214;-0.832104;-0.899863;-0.953368;-0.951641;-0.970436;-1.007730;-1.068717;-1.089851;-1.138931;-1.129091;-1.120140;-1.185025;-1.202535;-1.209286;-1.208553;-1.231171;-1.281632;-1.294125
-1.848883;-1.790256;-1.772974;-1.699154;-1.687563;-1.497696;-1.338099;-1.432549;-1.279584;-1.184831;-1.081799;-1.079631;-0.943727;-0.651460;-0.663562;-0.579773;-0.488356;-0.400609;-0.320924;-0.174347;0.018431;-0.026946;-0.004689;0.266617;0.257703;0.376941;0.424217;0.573821;0.636462;0.779930;0.935542;0.980095;1.038312;1.140015;1.101358;1.167627;1.331179;1.355174;1.339475;1.421659;1.506196;1.379173;1.550953;1.553534;1.648528;1.694806;1.623979;1.702999;1.681752;1.707917;1.642268;1.615969;1.729487;1.659203;1.654508;1.615598;1.625487;1.681317;1.630613;1.537684;1.568183;1.624418;1.405189;1.452401;1.374033;1.408897;1.407027;1.342872;1.288567;1.298386;1.246305;1.104816;1.179043;1.041418;1.062458;0.981951;0.944550;0.955205;0.812231;0.805456;0.735654;0.772418;0.683231;0.633282;0.446734;0.437544;0.377142;0.411061;0.392077;0.411496;0.262165;0.204204;0.181684;0.117097;0.037005;0.021952;0.044688;-0.079116;-0.021370;-0.199969;-0.173327;-0.254324;-0.174314;-0.334364;-0.263405;-0.377497;-0.311755;-0.435149;-0.433974;-0.486246;-0.309587;-0.505680;-0.554886;-0.542625;-0.525199;-0.489116;-0.498556;-0.580220;-0.513139;-0.453556;-0.564966;-0.486297;-0.493404;-0.571993;-0.440114;-0.563313;-0.500581;-0.502605;-0.403768;-0.353240;-0.407852;-0.425863;-0.315235;-0.312289;-0.373792;-0.315666;-0.172200;-0.176939;-0.211211;-0.172708;-0.203051;-0.155374;-0.079757;-0.051313;-0.101173;0.035896;0.095168;0.010408;0.092722;0.103431;0.025960;0.033369;0.058382;0.056421;0.067582;0.153560;0.020635;0.078466;0.021664;0.069501;-0.035735;-0.004455;-0.078102;-0.082859;-0.043347;-0.188346;-0.136388;-0.202882;-0.194786;-0.312217;-0.345356;-0.415771;-0.385259;-0.546450;-0.591859;-0.611684;-0.657444;-0.835520;-0.919703;-0.901222;-1.028902;-1.044570;-1.195332;-1.201220;-1.295970;-1.321749;-1.450068;-1.449146;-1.514990;-1.627423;-1.686227;-1.744909;-1.760117;-1.950074;-1.928649;-2.001183;-2.025095;-2.134496;-2.130858;-2.182681
-1.244662;-1.173214;-1.143208;-1.180726;-1.152789;-1.159095;-1.113037;-1.099223;-1.119774;-1.065323;-1.039256;-0.991134;-1.014974;-0.912562;-0.954866;-0.913849;-0.918939;-0.856402;-0.839338;-0.769560;-0.822269;-0.787153;-0.814726;-0.748369;-0.669165;-0.699030;-0.659826;-0.684650;-0.681852;-0.576711;-0.612579;-0.594282;-0.577559;-0.500603;-0.539674;-0.495181;-0.506990;-0.441169;-0.392526;-0.481887;-0.465598;-0.515541;-0.484622;-0.427969;-0.410726;-0.396531;-0.413085;-0.407276;-0.431297;-0.376528;-0.383198;-0.360848;-0.397267;-0.394236;-0.364325;-0.352144;-0.329637;-0.377199;-0.351750;-0.363883;-0.323852;-0.306028;-0.358087;-0.365971;-0.350294;-0.301902;-0.290999;-0.307755;-0.255586;-0.251383;-0.204802;-0.199670;-0.189152;-0.139679;-0.115946;-0.105852;-0.057036;-0.010225;0.021479;0.005600;0.089281;0.141680;0.163087;0.196604;0.273314;0.309646;0.403138;0.405753;0.481650;0.559359;0.562152;0.687452;0.766121;0.760551;0.812145;0.895788;0.962016;1.000266;1.072234;1.146672;1.196372;1.281863;1.350950;1.422778;1.458543;1.497896;1.496864;1.568318;1.667400;1.669219;1.759246;1.735143;1.825426;1.771711;1.825684;1.838721;1.853708;1.895634;1.887240;1.877879;1.920348;1.884531;1.878839;1.895381;1.832890;1.831446;1.787524;1.734260;1.780161;1.673413;1.644193;1.578833;1.557636;1.490701;1.457552;1.408334;1.327724;1.236077;1.193579;1.105343;1.050439;0.970475;0.910737;0.796959;0.791029;0.662483;0.638642;0.569911;0.449031;0.380381;0.348907;0.201466;0.189168;0.131612;0.092670;-0.015039;-0.038002;-0.077738;-0.177968;-0.175208;-0.289795;-0.307673;-0.363454;-0.480857;-0.488832;-0.543365;-0.627250;-0.682038;-0.711718;-0.703572;-0.786003;-0.768949;-0.819281;-0.875044;-0.909776;-0.956984;-0.949526;-0.990837;-1.033231;-0.985077;-1.077517;-1.121300;-1.126246;-1.143678;-1.196184;-1.177911;-1.193789;-1.204194;-1.256374;-1.291434;-1.238000;-1.293392;-1.283154;-1.298275;-1.346244;-1.319384;-1.373689;-1.430765;-1.394270;-1.390231
-1.855895;-1.785807;-1.784235;-1.718218;-1.661600;-1.651260;-1.615625;-1.552109;-1.524419;-1.533316;-1.482839;-1.481074;-1.446119;-1.352325;-1.310222;-1.245953;-1.263285;-1.192379;-1.158410;-1.136065;-1.076880;-1.048673;-0.968763;-0.932711;-0.921626;-0.894113;-0.837681;-0.893916;-0.754159;-0.793136;-0.758952;-0.673735;-0.656208;-0.657877;-0.608568;-0.564199;-0.513800;-0.602834;-0.572273;-0.509708;-0.516683;-0.472683;-0.480046;-0.486673;-0.496133;-0.433104;-0.335330;-0.429346;-0.381451;-0.415032;-0.432756;-0.374467;-0.387415;-0.439143;-0.405352;-0.457411;-0.436984;-0.477238;-0.432261;-0.444583;-0.453306;-0.441759;-0.492712;-0.480874;-0.476561;-0.516737;-0.546552;-0.511346;-0.536124;-0.548302;-0.520175;-0.551414;-0.492304;-0.595112;-0.584371;-0.505556;-0.529085;-0.565250;-0.495016;-0.512496;-0.621376;-0.510698;-0.563974;-0.519718;-0.537078;-0.505742;-0.526227;-0.498158;-0.442577;-0.506119;-0.472534;-0.462951;-0.421288;-0.415344;-0.414933;-0.373950;-0.270887;-0.362694;-0.388856;-0.287738;-0.258156;-0.247808;-0.201438;-0.240125;-0.164018;-0.157861;-0.075193;-0.069323;0.000358;0.043573;0.059477;0.112098;0.130810;0.145531;0.216501;0.230493;0.276282;0.333314;0.419536;0.496471;0.433507;0.518577;0.557496;0.618010;0.744839;0.739614;0.832549;0.917054;0.841786;0.934654;0.962847;1.107105;1.106093;1.228135;1.264403;1.281528;1.326286;1.392421;1.415004;1.513059;1.553058;1.594916;1.635454;1.684153;1.718149;1.768404;1.775800;1.758959;1.852887;1.911894;1.809632;1.891511;1.815870;1.900906;1.910354;1.839048;1.891260;1.838754;1.832357;1.831782;1.766834;1.699596;1.689620;1.629351;1.641430;1.637732;1.498247;1.505882;1.421727;1.321828;1.187852;1.245624;1.139218;0.982896;0.982299;0.864231;0.770146;0.699106;0.628113;0.510130;0.413408;0.352404;0.192333;0.207706;0.058025;-0.000874;-0.090503;-0.150797;-0.319634;-0.419799;-0.490222;-0.585544;-0.646396;-0.770379;-0.856230;-0.928740;-0.942366;-1.012775;-1.070117;-1.179047
-0.323077;-0.287619;-0.246397;-0.163198;-0.102025;-0.059700;0.017884;0.068163;0.140536;0.220499;0.246448;0.371063;0.410166;0.476649;0.529904;0.638929;0.703279;0.765125;0.870210;0.945785;0.970427;1.073143;1.135362;1.217076;1.269545;1.331446;1.322048;1.432944;1.526832;1.575568;1.595850;1.644240;1.666619;1.737765;1.765740;1.802126;1.801877;1.840284;1.897038;1.876813;1.888789;1.907709;1.883186;1.901968;1.854147;1.882590;1.866725;1.848968;1.862436;1.824455;1.774209;1.746093;1.716046;1.677716;1.618790;1.599033;1.544737;1.471552;1.410524;1.380068;1.298400;1.271891;1.200549;1.174166;1.085139;1.039712;1.019456;0.940406;0.891612;0.807599;0.734079;0.679889;0.655730;0.569076;0.535016;0.484213;0.409561;0.375882;0.330927;0.277825;0.279191;0.179417;0.124874;0.067219;0.041533;-0.012705;0.004424;-0.115542;-0.087927;-0.138398;-0.188370;-0.231815;-0.276140;-0.280298;-0.319390;-0.355690;-0.357976;-0.406993;-0.438698;-0.451524;-0.469593;-0.476563;-0.503746;-0.530372;-0.570614;-0.588106;-0.607089;-0.660819;-0.600506;-0.623792;-0.662207;-0.663014;-0.669429;-0.668157;-0.699501;-0.700511;-0.735419;-0.693945;-0.719045;-0.749838;-0.743574;-0.781217;-0.765178;-0.748564;-0.767226;-0.795526;-0.778956;-0.778011;-0.802671;-0.787897;-0.809140;-0.802708;-0.772101;-0.836016;-0.786156;-0.814738;-0.793435;-0.754670;-0.800450;-0.795961;-0.830882;-0.839943;-0.858654;-0.790094;-0.831365;-0.825907;-0.823825;-0.832510;-0.805812;-0.808712;-0.814305;-0.827187;-0.808657;-0.814896;-0.814451;-0.816458;-0.815664;-0.808538;-0.817648;-0.887974;-0.851163;-0.821688;-0.880797;-0.870282;-0.843797;-0.859886;-0.896658;-0.867948;-0.870374;-0.887883;-0.908981;-0.898821;-0.915173;-0.895214;-0.921037;-0.923220;-0.935717;-0.929956;-0.957968;-0.977091;-0.941915;-0.989044;-0.957786;-0.990472;-0.997860;-0.966144;-0.996898;-1.010745;-1.015675;-1.017469;-1.006986;-1.028535;-1.026817;-1.081043;-1.045126;-1.085492;-1.052079;-1.079806;-1.101613;-1.096329
