11528;11520;11512;11504;11496;11488;11480;11472;11464;11456;11448;11440;11432;11424;11416;11408;11400;11392;11384;11376;11368;11360;11352;11344;11336;11328;11320;11312;11304;11296;11288;11280;11272;11264;11256;11248;11240;11232;11224;11216;11208;11200;11192;11184;11176;11168;11160;11152;11144;11136;11128;11120;11112;11104;11096;11088;11080;11072;11064;11056;11048;11040;11032;11024;11016;11008;11000;10992;10984;10976;10968;10960;10952;10944;10936;10928;10920;10912;10904;10896;10888;10880;10872;10864;10856;10848;10840;10832;10824;10816;10808;10800;10792;10784;10776;10768;10760;10752;10744;10736;10728;10720;10712;10704;10696;10688;10680;10672;10664;10656;10648;10640;10632;10624;10616;10608;10600;10592;10584;10576;10568;10560;10552;10544;10536;10528;10520;10512;10504;10496;10488;10480;10472;10464;10456;10448;10440;10432;10424;10416;10408;10400;10392;10384;10376;10368;10360;10352;10344;10336;10328;10320;10312;10304;10296;10288;10280;10272;10264;10256;10248;10240;10232;10224;10216;10208;10200;10192;10184;10176;10168;10160;10152;10144;10136;10128;10120;10112;10104;10096;10088;10080;10072;10064;10056;10048;10040;10032;10024;10016;10008;10000;9992;9984;9976;9968;9960;9952;9944;9936;9928;9920;9912;9904;9896;9888;9880;9872;9864;9856;9848;9840;9832;9824;9816;9808;9800;9792;9784;9776;9768;9760;9752;9744;9736;9728;9720;9712;9704;9696;9688;9680;9672;9664;9656;9648;9640;9632;9624;9616;9608;9600;9592;9584;9576;9568;9560;9552;9544;9536;9528;9520;9512;9504;9496;9488;9480;9472;9464;9456;9448;9440;9432;9424;9416;9408;9400;9392;9384;9376;9368;9360;9352;9344;9336;9328;9320;9312;9304;9296;9288;9280;9272;9264;9256;9248;9240;9232;9224;9216;9208;9200;9192;9184;9176;9168;9160;9152;9144;9136;9128;9120;9112;9104;9096;9088;9080;9072;9064;9056;9048;9040;9032;9024;9016;9008;9000;8992;8984;8976;8968;8960;8952;8944;8936;8928;8920;8912;8904;8896;8888;8880;8872;8864;8856;8848;8840;8832;8824;8816;8808;8800;8792;8784;8776;8768;8760;8752;8744;8736;8728;8720;8712;8704;8696;8688;8680;8672;8664;8656;8648;8640;8632;8624;8616;8608;8600;8592;8584;8576;8568;8560;8552;8544;8536;8528;8520;8512;8504;8496;8488;8480;8472;8464;8456;8448;8440;8432;8424;8416;8408;8400;8392;8384;8376;8368;8360;8352;8344;8336;8328;8320;8312;8304;8296;8288;8280;8272;8264;8256;8248;8240;8232;8224;8216;8208;8200;8192;8184;8176;8168;8160;8152;8144;8136;8128;8120;8112;8104;8096;8088;8080;8072;8064;8056;8048;8040;8032;8024;8016;8008;8000;7992;7984;7976;7968;7960;7952;7944;7936;7928;7920;7912;7904;7896;7888;7880;7872;7864;7856;7848;7840;7832;7824;7816;7808;7800;7792;7784;7776;7768;7760;7752;7744;7736;7728;7720;7712;7704;7696;7688;7680;7672;7664;7656;7648;7640;7632;7624;7616;7608;7600;7592;7584;7576;7568;7560;7552;7544;7536;7528;7520;7512;7504;7496;7488;7480;7472;7464;7456;7448;7440;7432;7424;7416;7408;7400;7392;7384;7376;7368;7360;7352;7344;7336;7328;7320;7312;7304;7296;7288;7280;7272;7264;7256;7248;7240;7232;7224;7216;7208;7200;7192;7184;7176;7168;7160;7152;7144;7136;7128;7120;7112;7104;7096;7088;7080;7072;7064;7056;7048;7040;7032;7024;7016;7008;7000;6992;6984;6976;6968;6960;6952;6944;6936;6928;6920;6912;6904;6896;6888;6880;6872;6864;6856;6848;6840;6832;6824;6816;6808;6800;6792;6784;6776;6768;6760;6752;6744;6736;6728;6720;6712;6704;6696;6688;6680;6672;6664;6656;6648;6640;6632;6624;6616;6608;6600;6592;6584;6576;6568;6560;6552;6544;6536;6528;6520;6512;6504;6496;6488;6480;6472;6464;6456;6448;6440;6432;6424;6416;6408;6400;6392;6384;6376;6368;6360;6352;6344;6336;6328;6320;6312;6304;6296;6288;6280;6272;6264;6256;6248;6240;6232;6224;6216;6208;6200;6192;6184;6176;6168;6160;6152;6144;6136;6128;6120;6112;6104;6096;6088;6080;6072;6064;6056;6048;6040;6032;6024;6016;6008;6000;5992;5984;5976;5968;5960;5952;5944;5936;5928;5920;5912;5904;5896;5888;5880;5872;5864;5856;5848;5840;5832;5824;5816;5808;5800;5792;5784;5776;5768;5760;5752;5744;5736;5728;5720;5712;5704;5696;5688;5680;5672;5664;5656;5648;5640;5632;5624;5616;5608;5600;5592;5584;5576;5568;5560;5552;5544;5536;5528;5520;5512;5504;5496;5488;5480;5472;5464;5456;5448;5440;5432;5424;5416;5408;5400;5392;5384;5376;5368;5360;5352;5344;5336;5328;5320;5312;5304;5296;5288;5280;5272;5264;5256;5248;5240;5232;5224;5216;5208;5200;5192;5184;5176;5168;5160;5152;5144;5136;5128;5120;5112;5104;5096;5088;5080;5072;5064;5056;5048;5040;5032;5024;5016;5008;5000;4992;4984;4976;4968;4960;4952;4944;4936;4928;4920;4912;4904;4896;4888;4880;4872;4864;4856;4848;4840;4832;4824;4816;4808;4800;4792;4784;4776;4768;4760;4752;4744;4736;4728;4720;4712;4704;4696;4688;4680;4672;4664;4656;4648;4640;4632;4624;4616;4608;4600;4592;4584;4576;4568;4560;4552;4544;4536;4528;4520;4512;4504;4496;4488;4480;4472;4464;4456;4448;4440;4432;4424;4416;4408;4400;4392;4384;4376;4368;4360;4352;4344;4336;4328;4320;4312;4304;4296;4288;4280;4272;4264;4256;4248;4240;4232;4224;4216;4208;4200;4192;4184;4176;4168;4160;4152;4144;4136;4128;4120;4112;4104;4096;4088;4080;4072;4064;4056;4048;4040;4032;4024;4016;4008;4000;3992;3984;3976;3968;3960;3952;3944
0.3029;0.3031;0.3028;0.3021;0.3013;0.301;0.3008;0.3008;0.301;0.301;0.3006;0.3;0.2993;0.2989;0.2987;0.2984;0.2981;0.2977;0.2974;0.2973;0.2975;0.2977;0.2975;0.2972;0.297;0.2967;0.2967;0.2969;0.297;0.297;0.2969;0.2967;0.296;0.2954;0.295;0.2949;0.2951;0.2952;0.2951;0.2951;0.2954;0.2954;0.2951;0.2947;0.2945;0.2943;0.2945;0.2951;0.2952;0.2946;0.2941;0.2938;0.2935;0.2933;0.2934;0.2937;0.2938;0.2937;0.2939;0.2944;0.2945;0.2943;0.2941;0.294;0.2939;0.294;0.2944;0.2946;0.2944;0.2941;0.2938;0.2939;0.2939;0.2936;0.2931;0.2932;0.2939;0.294;0.2934;0.2926;0.2928;0.2936;0.294;0.2937;0.2932;0.2926;0.292;0.2918;0.2919;0.292;0.2918;0.2915;0.2914;0.2914;0.2912;0.2907;0.2901;0.2896;0.2892;0.2888;0.2887;0.2886;0.2886;0.2883;0.2879;0.2878;0.2876;0.2873;0.287;0.2867;0.2862;0.2857;0.2854;0.285;0.2849;0.285;0.2851;0.2851;0.285;0.2851;0.2852;0.2851;0.285;0.2849;0.2852;0.2854;0.2853;0.2849;0.2846;0.2847;0.2848;0.2849;0.2852;0.2858;0.2863;0.2866;0.2866;0.2866;0.2869;0.2874;0.2878;0.288;0.2883;0.2886;0.2889;0.2893;0.2896;0.2901;0.2908;0.2915;0.2919;0.2922;0.2927;0.2935;0.2941;0.2944;0.2945;0.2948;0.2953;0.2959;0.2965;0.2972;0.2976;0.298;0.2986;0.2992;0.2993;0.2993;0.2995;0.2999;0.3003;0.3005;0.3007;0.301;0.3011;0.3013;0.3017;0.302;0.3021;0.3021;0.302;0.302;0.302;0.3019;0.3019;0.302;0.3023;0.3022;0.3017;0.3013;0.3013;0.3013;0.3011;0.3009;0.3008;0.3007;0.3005;0.3003;0.3002;0.3003;0.3003;0.3003;0.3003;0.3002;0.3;0.2996;0.2993;0.2991;0.2989;0.2985;0.2983;0.2981;0.2979;0.2976;0.2973;0.2971;0.2968;0.2965;0.2962;0.2959;0.2955;0.2951;0.2947;0.2946;0.2944;0.294;0.2935;0.2929;0.2926;0.2924;0.2922;0.2919;0.2915;0.291;0.2906;0.2904;0.2902;0.2898;0.2893;0.289;0.2887;0.2884;0.2881;0.2878;0.2874;0.2869;0.2865;0.2862;0.286;0.2857;0.2853;0.285;0.2848;0.2847;0.2845;0.284;0.2834;0.2829;0.2826;0.2823;0.282;0.2818;0.2816;0.2814;0.2811;0.2807;0.2801;0.2796;0.2791;0.2788;0.2786;0.2783;0.2781;0.2779;0.2776;0.2772;0.2768;0.2766;0.2764;0.2761;0.2757;0.2754;0.2751;0.2748;0.2745;0.2744;0.2744;0.2743;0.274;0.2736;0.2733;0.2731;0.273;0.2729;0.2729;0.2726;0.2724;0.2722;0.2721;0.2721;0.272;0.2719;0.2718;0.2717;0.2716;0.2715;0.2712;0.2711;0.2712;0.2713;0.2713;0.2712;0.2711;0.271;0.2711;0.2711;0.2711;0.2712;0.2713;0.2713;0.2714;0.2713;0.2712;0.2714;0.2717;0.272;0.2721;0.2721;0.2723;0.2727;0.2733;0.2741;0.2748;0.2757;0.2767;0.2778;0.279;0.2802;0.2815;0.2831;0.2849;0.2868;0.2886;0.2906;0.2927;0.2948;0.297;0.2991;0.3012;0.3035;0.3058;0.3082;0.3105;0.313;0.3154;0.3178;0.3201;0.3223;0.3246;0.3269;0.3292;0.3316;0.3339;0.3362;0.3382;0.3403;0.3422;0.3442;0.3461;0.3479;0.3496;0.3511;0.3527;0.3542;0.3555;0.3569;0.3583;0.3599;0.3614;0.3628;0.3643;0.3659;0.3674;0.3688;0.3702;0.3716;0.373;0.3744;0.3757;0.3768;0.378;0.379;0.3799;0.3806;0.3813;0.3821;0.3827;0.3833;0.3838;0.3842;0.3844;0.3845;0.3846;0.3847;0.3847;0.3845;0.3843;0.384;0.3836;0.383;0.3823;0.3815;0.3805;0.3794;0.3782;0.3769;0.3756;0.3741;0.3725;0.3709;0.3694;0.368;0.3666;0.3653;0.364;0.3628;0.3616;0.3603;0.3591;0.358;0.3571;0.3562;0.3553;0.3546;0.3538;0.3531;0.3525;0.3518;0.3512;0.3507;0.3502;0.3498;0.3494;0.3491;0.3488;0.3485;0.3483;0.3479;0.3477;0.3476;0.3474;0.3472;0.347;0.3469;0.3469;0.3466;0.3464;0.3461;0.346;0.3459;0.3457;0.3455;0.3452;0.3449;0.3446;0.3443;0.344;0.3437;0.3433;0.343;0.3427;0.3424;0.3421;0.3419;0.3417;0.3415;0.3415;0.3414;0.3413;0.3413;0.3413;0.3415;0.3417;0.342;0.3423;0.3426;0.3431;0.3436;0.3442;0.345;0.3459;0.3469;0.3478;0.3489;0.3501;0.3513;0.3527;0.3542;0.3557;0.3574;0.3591;0.361;0.363;0.3651;0.3674;0.3696;0.3719;0.3741;0.3765;0.379;0.3814;0.3839;0.3864;0.3889;0.3914;0.3938;0.3963;0.3986;0.401;0.4033;0.4057;0.4081;0.4103;0.4123;0.4143;0.4164;0.4185;0.4205;0.4225;0.4245;0.4265;0.4285;0.4305;0.4324;0.4344;0.4364;0.4386;0.4412;0.4443;0.4478;0.4516;0.4557;0.4601;0.4646;0.4692;0.4739;0.4789;0.4839;0.4892;0.4951;0.5012;0.5074;0.5139;0.5206;0.5273;0.5341;0.5407;0.5473;0.5537;0.5599;0.5658;0.5717;0.5775;0.583;0.5882;0.593;0.5974;0.6016;0.6055;0.6091;0.6124;0.6154;0.6181;0.6204;0.6224;0.6243;0.626;0.6274;0.6288;0.6299;0.631;0.6319;0.6327;0.6334;0.634;0.6347;0.6353;0.6356;0.6358;0.6358;0.6357;0.6357;0.6356;0.6354;0.6349;0.6344;0.6338;0.6331;0.6323;0.6316;0.6307;0.6298;0.6288;0.628;0.6271;0.6262;0.6252;0.6242;0.6231;0.6221;0.621;0.62;0.6189;0.6179;0.6168;0.6158;0.6148;0.6137;0.6128;0.6119;0.6111;0.6102;0.6094;0.6086;0.6079;0.6074;0.6069;0.6064;0.6059;0.6055;0.6052;0.6048;0.6044;0.6041;0.6037;0.6034;0.6031;0.6029;0.6027;0.6024;0.6022;0.602;0.6017;0.6014;0.6012;0.6009;0.6006;0.6003;0.5999;0.5994;0.5988;0.5981;0.5973;0.5965;0.5957;0.5946;0.5935;0.5922;0.5909;0.5896;0.5882;0.5868;0.5853;0.5839;0.5824;0.5809;0.5795;0.5781;0.5767;0.5753;0.5739;0.5726;0.5713;0.5699;0.5686;0.5673;0.5661;0.565;0.564;0.5631;0.5621;0.5613;0.5605;0.5599;0.5594;0.559;0.5587;0.5586;0.5587;0.5589;0.5592;0.5597;0.5602;0.5609;0.5618;0.563;0.5645;0.5663;0.5685;0.571;0.5738;0.5768;0.5798;0.5825;0.5849;0.5871;0.5892;0.591;0.5926;0.5939;0.5951;0.5965;0.5981;0.5998;0.6017;0.6035;0.6054;0.6075;0.6098;0.6112;0.6106;0.6086;0.607;0.6063;0.6065;0.6068;0.6072;0.6076;0.6083;0.609;0.6099;0.6109;0.6119;0.6125;0.6123;0.6116;0.611;0.6108;0.6106;0.6102;0.6096;0.6088;0.6079;0.6069;0.6059;0.6048;0.6036;0.6025;0.6013;0.6003;0.5994;0.5986;0.5978;0.5971;0.5963;0.5955;0.5946;0.5935;0.5922;0.591;0.5896;0.5881;0.587;0.5861;0.5852;0.5847;0.5847;0.5851;0.5861;0.5877;0.5898;0.5923;0.5955;0.6;0.6063;0.6143;0.6234;0.6341;0.6466;0.6614;0.6785;0.6976;0.7181;0.7398;0.7623;0.7844;0.8052;0.8237;0.8403;0.8545;0.8663;0.8759;0.8829;0.8873;0.8893;0.889;0.8866;0.8826;0.8776;0.8718;0.8655;0.8589;0.8523;0.8457;0.839;0.8326;0.8262;0.82;0.8138;0.8075;0.8014;0.7954;0.7897;0.7844;0.7794;0.7748;0.7708;0.7674;0.7648;0.7629;0.7617;0.7613;0.7617;0.7631;0.7653;0.7683;0.7719;0.7762;0.7808;0.7857;0.7908;0.796;0.8011;0.8061;0.8107;0.8149;0.8189;0.8225;0.8259;0.8289;0.8315;0.8338;0.8357;0.8374;0.8389;0.8401;0.841;0.8416;0.8419;0.8419;0.8416;0.841;0.84;0.8386;0.8369;0.8349;0.8325;0.8298;0.8269;0.8237;0.8205;0.8173;0.8141;0.8109;0.8076;0.8043;0.801;0.7978;0.7947;0.7917;0.7886;0.7855;0.7826;0.7797;0.777;0.7746;0.7725;0.7708;0.7697;0.7694;0.7702;0.7724;0.7763;0.782;0.7894;0.7981;0.8076;0.8173;0.8272;0.8369;0.8466;0.8561;0.8649;0.872;0.8764;0.8789;0.8818;0.8872;0.8955;0.9063;0.917;0.9203;0.9148;0.9084;0.9058;0.9056;0.9063;0.9078;0.911;0.9142;0.9141;0.9109;0.9084;0.9082;0.9091;0.9104;0.9125;0.9151;0.9174;0.9201;0.9237;0.9286;0.9344;0.9408;0.9478;0.9555;0.9642;0.9738;0.9842;0.9948;1.0049;1.0147;1.0248;1.035;1.0448;1.0539;1.0619;1.0688;1.074;1.0773;1.0788;1.0792;1.0788;1.0774;1.0751;1.0724;1.0691;1.0654;1.0615
0.3053;0.3053;0.3053;0.3051;0.3044;0.3039;0.3041;0.3041;0.3037;0.3033;0.3028;0.302;0.3014;0.3012;0.3011;0.301;0.3007;0.3006;0.3008;0.3006;0.3002;0.3001;0.3;0.2998;0.2997;0.2996;0.2993;0.2993;0.2995;0.2998;0.2996;0.2989;0.2982;0.298;0.2982;0.2987;0.299;0.2989;0.2985;0.2985;0.2988;0.2988;0.2989;0.2989;0.2987;0.2983;0.2983;0.2987;0.2988;0.2985;0.2982;0.298;0.2979;0.2976;0.2973;0.2972;0.2972;0.2973;0.2976;0.2977;0.2978;0.298;0.2981;0.298;0.2981;0.2983;0.2982;0.2977;0.2974;0.2973;0.2971;0.2971;0.2973;0.2974;0.2974;0.2977;0.2982;0.2981;0.2976;0.2973;0.2973;0.2975;0.2978;0.2978;0.2972;0.2963;0.2957;0.2955;0.2956;0.2958;0.2957;0.2956;0.2954;0.2951;0.2948;0.2946;0.2942;0.2937;0.2934;0.2932;0.2931;0.293;0.2929;0.2927;0.2923;0.2918;0.2915;0.2915;0.2916;0.2916;0.2911;0.2904;0.2901;0.2901;0.2898;0.2895;0.2893;0.2893;0.2895;0.2898;0.2898;0.2899;0.2898;0.2896;0.2898;0.2901;0.2903;0.2901;0.29;0.2901;0.29;0.29;0.2903;0.2908;0.2913;0.2916;0.2917;0.2918;0.2925;0.2935;0.2941;0.2942;0.2941;0.2944;0.2949;0.2952;0.2954;0.2959;0.2967;0.2975;0.298;0.2985;0.2989;0.2995;0.3001;0.3005;0.3009;0.3014;0.302;0.3026;0.3032;0.3037;0.3041;0.3046;0.3052;0.3055;0.3056;0.3058;0.3061;0.3065;0.307;0.3074;0.3077;0.308;0.3084;0.3088;0.309;0.3091;0.309;0.309;0.309;0.309;0.309;0.309;0.3088;0.3088;0.309;0.3089;0.3086;0.3085;0.3087;0.3088;0.3087;0.3086;0.3086;0.3086;0.3083;0.308;0.3078;0.3077;0.3076;0.3074;0.3072;0.3071;0.3069;0.3068;0.3067;0.3064;0.306;0.3059;0.3057;0.3054;0.3049;0.3046;0.3043;0.3042;0.3041;0.3039;0.3034;0.3029;0.3024;0.3022;0.3021;0.302;0.3018;0.3012;0.3007;0.3003;0.3;0.2997;0.2994;0.2991;0.2987;0.2983;0.298;0.2978;0.2974;0.2968;0.2963;0.296;0.2957;0.2954;0.2951;0.2948;0.2944;0.2941;0.2938;0.2935;0.2932;0.2928;0.2923;0.2919;0.2916;0.2914;0.2911;0.2908;0.2904;0.2899;0.2896;0.2894;0.289;0.2887;0.2883;0.2881;0.2877;0.2872;0.2868;0.2863;0.2859;0.2856;0.2852;0.2848;0.2845;0.2844;0.2842;0.2839;0.2837;0.2835;0.2831;0.2827;0.2825;0.2823;0.2821;0.2817;0.2814;0.2812;0.2809;0.2807;0.2805;0.2801;0.2798;0.2796;0.2794;0.2794;0.2794;0.2792;0.2788;0.2784;0.2783;0.2783;0.2783;0.2784;0.2784;0.2784;0.2781;0.2779;0.2777;0.2776;0.2778;0.2779;0.2778;0.2778;0.2779;0.2781;0.2781;0.2778;0.2776;0.2776;0.2778;0.278;0.2782;0.2782;0.2783;0.2784;0.2786;0.2788;0.2789;0.279;0.2793;0.2798;0.2804;0.2811;0.2819;0.2828;0.2837;0.2848;0.2861;0.2875;0.2891;0.2907;0.2926;0.2946;0.2965;0.2985;0.3007;0.3029;0.3052;0.3076;0.31;0.3122;0.3146;0.3172;0.3199;0.3225;0.3249;0.3273;0.3298;0.3323;0.3347;0.3371;0.3396;0.3421;0.3445;0.3468;0.3491;0.3512;0.3533;0.3554;0.3575;0.3596;0.3614;0.3631;0.3646;0.366;0.3673;0.3687;0.3703;0.3721;0.3738;0.3752;0.3766;0.3784;0.3801;0.3816;0.3831;0.3847;0.3862;0.3876;0.3889;0.3903;0.3915;0.3925;0.3934;0.3942;0.395;0.3957;0.3963;0.3968;0.3973;0.3978;0.3981;0.3982;0.3982;0.3985;0.3986;0.3986;0.3983;0.3978;0.3973;0.3968;0.3962;0.3953;0.3941;0.393;0.3918;0.3906;0.3891;0.3875;0.3859;0.3843;0.3827;0.3811;0.3796;0.3782;0.3768;0.3755;0.3742;0.3729;0.3718;0.3707;0.3697;0.3687;0.3677;0.3668;0.3659;0.3652;0.3646;0.3641;0.3635;0.3628;0.3622;0.3617;0.3613;0.361;0.3606;0.3604;0.3602;0.3599;0.3596;0.3594;0.3593;0.3592;0.359;0.3588;0.3587;0.3585;0.3583;0.3581;0.3579;0.3578;0.3576;0.3573;0.3569;0.3567;0.3564;0.3562;0.3558;0.3554;0.3551;0.3548;0.3545;0.3542;0.3539;0.3536;0.3534;0.3532;0.3531;0.353;0.353;0.353;0.353;0.3531;0.3534;0.3537;0.3541;0.3545;0.3551;0.3557;0.3563;0.357;0.3579;0.3589;0.3599;0.3611;0.3623;0.3637;0.3651;0.3666;0.3683;0.3701;0.3721;0.3741;0.3762;0.3784;0.3808;0.3831;0.3855;0.388;0.3905;0.3931;0.3957;0.3983;0.4009;0.4036;0.4062;0.4088;0.4115;0.414;0.4165;0.419;0.4216;0.424;0.4263;0.4284;0.4306;0.4327;0.4348;0.437;0.4391;0.4412;0.4433;0.4454;0.4475;0.4495;0.4516;0.4538;0.4561;0.4588;0.4622;0.4659;0.4699;0.4742;0.4787;0.4834;0.4882;0.4931;0.4982;0.5036;0.5092;0.5154;0.5218;0.5283;0.5351;0.5419;0.5489;0.5559;0.5627;0.5694;0.576;0.5825;0.5887;0.5948;0.6007;0.6062;0.6115;0.6165;0.6212;0.6254;0.6294;0.633;0.6363;0.6394;0.642;0.6443;0.6465;0.6484;0.6501;0.6516;0.653;0.6541;0.6552;0.6562;0.657;0.6577;0.6583;0.6589;0.6594;0.6598;0.66;0.6602;0.6602;0.6601;0.6599;0.6596;0.6591;0.6586;0.658;0.6572;0.6564;0.6556;0.6548;0.6539;0.653;0.652;0.651;0.6501;0.6491;0.648;0.6469;0.6458;0.6447;0.6436;0.6426;0.6415;0.6404;0.6394;0.6384;0.6374;0.6365;0.6355;0.6344;0.6334;0.6326;0.632;0.6314;0.6308;0.6302;0.6297;0.6292;0.6287;0.6284;0.6281;0.6277;0.6274;0.627;0.6267;0.6264;0.6261;0.6259;0.6257;0.6255;0.6252;0.6249;0.6247;0.6244;0.6241;0.6238;0.6234;0.6229;0.6223;0.6217;0.6211;0.6204;0.6196;0.6186;0.6176;0.6165;0.6153;0.614;0.6125;0.6111;0.6096;0.6081;0.6066;0.6051;0.6037;0.6022;0.6007;0.5992;0.5978;0.5964;0.595;0.5936;0.5922;0.5909;0.5897;0.5885;0.5873;0.5863;0.5852;0.5843;0.5834;0.5827;0.582;0.5814;0.581;0.5807;0.5807;0.5808;0.5811;0.5813;0.5817;0.5822;0.5829;0.5838;0.585;0.5866;0.5885;0.5907;0.5933;0.5963;0.5994;0.6024;0.6052;0.6078;0.6101;0.6123;0.6142;0.6158;0.6171;0.6184;0.6199;0.6215;0.6233;0.6251;0.6269;0.6287;0.6309;0.6332;0.6346;0.634;0.632;0.6304;0.6299;0.63;0.6303;0.6307;0.6312;0.6319;0.6328;0.6337;0.6347;0.6358;0.6363;0.6361;0.6354;0.6349;0.6347;0.6345;0.6341;0.6334;0.6326;0.6317;0.6307;0.6297;0.6285;0.6273;0.6261;0.625;0.6239;0.6229;0.6221;0.6213;0.6206;0.6198;0.619;0.6181;0.6169;0.6157;0.6144;0.613;0.6115;0.6103;0.6094;0.6085;0.6079;0.6079;0.6084;0.6094;0.6111;0.6134;0.616;0.6193;0.6239;0.6304;0.6385;0.6479;0.6589;0.6718;0.6869;0.7043;0.7238;0.7446;0.7667;0.7895;0.8119;0.8329;0.8516;0.8683;0.8826;0.8945;0.9041;0.9112;0.9156;0.9176;0.9172;0.9147;0.9105;0.9053;0.8994;0.8929;0.8862;0.8795;0.8728;0.8662;0.8596;0.8531;0.8467;0.8403;0.8341;0.828;0.822;0.8163;0.8109;0.8058;0.8011;0.797;0.7936;0.7909;0.7889;0.7878;0.7874;0.7878;0.7892;0.7914;0.7944;0.7981;0.8023;0.807;0.812;0.8172;0.8224;0.8276;0.8326;0.8372;0.8414;0.8454;0.8491;0.8525;0.8556;0.8582;0.8605;0.8625;0.8642;0.8657;0.8669;0.8678;0.8683;0.8686;0.8686;0.8683;0.8676;0.8665;0.8651;0.8633;0.8613;0.8589;0.8561;0.8531;0.8499;0.8466;0.8434;0.8401;0.8367;0.8332;0.8299;0.8266;0.8235;0.8204;0.8173;0.8143;0.8113;0.8083;0.8054;0.8026;0.8002;0.7981;0.7964;0.7953;0.7951;0.796;0.7983;0.8022;0.8079;0.8153;0.824;0.8335;0.8434;0.8533;0.8631;0.8728;0.8825;0.8914;0.8984;0.9028;0.9053;0.9081;0.9134;0.9218;0.9329;0.9439;0.9472;0.9417;0.9354;0.9328;0.9326;0.9333;0.9348;0.938;0.9414;0.9415;0.9383;0.9358;0.9357;0.9365;0.9378;0.94;0.9425;0.9449;0.9476;0.9512;0.9562;0.9621;0.9687;0.9758;0.9837;0.9924;1.0021;1.0126;1.0233;1.0335;1.0434;1.0537;1.0642;1.0741;1.0832;1.0913;1.0983;1.1038;1.1072;1.1087;1.1092;1.1089;1.1077;1.1055;1.1025;1.099;1.0953;1.0915
0.2998;0.2996;0.2992;0.2991;0.2987;0.2982;0.2981;0.298;0.2981;0.2983;0.2982;0.2978;0.297;0.2966;0.2966;0.2965;0.2959;0.2955;0.296;0.2968;0.2964;0.2952;0.2944;0.2945;0.2949;0.2953;0.2957;0.2959;0.2958;0.2957;0.2954;0.2947;0.294;0.2937;0.2936;0.2935;0.2934;0.293;0.2926;0.2929;0.2937;0.294;0.2936;0.2932;0.2932;0.2936;0.2942;0.2945;0.2941;0.2933;0.2931;0.2933;0.2936;0.2936;0.2933;0.2932;0.2932;0.2931;0.2934;0.2939;0.294;0.2942;0.2943;0.2943;0.2944;0.2947;0.2948;0.2944;0.2941;0.294;0.2942;0.2942;0.2941;0.2939;0.2936;0.2936;0.2939;0.2941;0.2938;0.2936;0.2937;0.2939;0.2941;0.294;0.2935;0.2926;0.2922;0.2923;0.2924;0.2925;0.2926;0.2929;0.2928;0.2921;0.2913;0.2907;0.2904;0.2902;0.2898;0.2894;0.2892;0.2891;0.2893;0.2892;0.289;0.2889;0.2887;0.2881;0.2877;0.2874;0.2871;0.2868;0.2866;0.2863;0.286;0.2859;0.2859;0.286;0.2862;0.2865;0.2867;0.2866;0.2863;0.286;0.2861;0.2863;0.2865;0.2865;0.2864;0.2862;0.2862;0.2866;0.2872;0.2877;0.2882;0.2886;0.2888;0.2889;0.2892;0.2896;0.2899;0.2906;0.2913;0.2917;0.292;0.2924;0.2927;0.2932;0.294;0.2947;0.2952;0.2957;0.2962;0.2969;0.2974;0.2976;0.2978;0.2983;0.299;0.2996;0.3001;0.3006;0.3013;0.3019;0.3024;0.3028;0.3033;0.3036;0.3038;0.3041;0.3047;0.3051;0.3054;0.3053;0.3053;0.3054;0.3059;0.3062;0.3063;0.3062;0.3062;0.3063;0.3064;0.3063;0.3062;0.3063;0.3066;0.3066;0.3063;0.3062;0.3061;0.306;0.3057;0.3055;0.3054;0.3056;0.3056;0.3054;0.3054;0.3055;0.3054;0.3052;0.305;0.3049;0.3047;0.3046;0.3045;0.3042;0.3037;0.3034;0.3033;0.3032;0.3029;0.3024;0.3021;0.3021;0.302;0.3016;0.3012;0.3009;0.3004;0.3;0.2997;0.2996;0.2995;0.2992;0.2989;0.2985;0.2982;0.2978;0.2973;0.297;0.2967;0.2963;0.2959;0.2955;0.2953;0.295;0.2945;0.2941;0.2937;0.2934;0.2931;0.2928;0.2925;0.2923;0.2921;0.2919;0.2915;0.2911;0.2906;0.2903;0.29;0.2898;0.2894;0.2889;0.2885;0.2882;0.2881;0.2878;0.2874;0.2869;0.2866;0.2863;0.2859;0.2854;0.285;0.2847;0.2846;0.2843;0.2839;0.2834;0.283;0.2828;0.2825;0.2822;0.282;0.2818;0.2814;0.281;0.2809;0.2809;0.2807;0.2803;0.28;0.2798;0.2796;0.2794;0.2791;0.2787;0.2784;0.2784;0.2784;0.2782;0.2781;0.2779;0.2777;0.2775;0.2774;0.2773;0.2773;0.2771;0.277;0.2769;0.2769;0.2769;0.2768;0.2767;0.2766;0.2766;0.2766;0.2766;0.2767;0.2768;0.2769;0.2768;0.2766;0.2766;0.2767;0.2768;0.2769;0.277;0.2771;0.2774;0.2778;0.2781;0.2782;0.2783;0.2785;0.279;0.2795;0.2801;0.2808;0.2817;0.2827;0.2839;0.2853;0.2867;0.2882;0.2897;0.2915;0.2936;0.2958;0.2979;0.3;0.3022;0.3044;0.3068;0.3091;0.3115;0.3139;0.3164;0.3189;0.3214;0.3239;0.3264;0.329;0.3315;0.3338;0.3361;0.3385;0.341;0.3434;0.3457;0.3479;0.3501;0.3522;0.3543;0.3562;0.358;0.3597;0.3614;0.3631;0.3645;0.3658;0.3672;0.3687;0.3703;0.3718;0.3733;0.3748;0.3764;0.3779;0.3792;0.3807;0.3823;0.3839;0.3853;0.3866;0.3878;0.3891;0.3903;0.3912;0.3919;0.3925;0.3931;0.3938;0.3945;0.3951;0.3955;0.3957;0.3957;0.3957;0.3958;0.396;0.3961;0.396;0.3956;0.3953;0.3948;0.3942;0.3932;0.3921;0.3909;0.3896;0.3882;0.3868;0.3853;0.3837;0.382;0.3805;0.379;0.3776;0.3761;0.3747;0.3735;0.3722;0.3709;0.3697;0.3686;0.3676;0.3667;0.3657;0.3649;0.3641;0.3634;0.3628;0.3622;0.3615;0.3609;0.3605;0.3601;0.3596;0.3592;0.3588;0.3586;0.3584;0.358;0.3577;0.3576;0.3575;0.3573;0.3571;0.357;0.3569;0.3566;0.3564;0.3561;0.3559;0.3558;0.3556;0.3554;0.3551;0.3549;0.3546;0.3543;0.354;0.3536;0.3533;0.353;0.3528;0.3525;0.3522;0.3519;0.3517;0.3515;0.3514;0.3514;0.3514;0.3514;0.3515;0.3516;0.3519;0.3521;0.3524;0.3528;0.3534;0.354;0.3546;0.3554;0.3563;0.3573;0.3583;0.3593;0.3605;0.3619;0.3634;0.3649;0.3666;0.3683;0.3701;0.3721;0.3742;0.3763;0.3785;0.3808;0.3832;0.3855;0.388;0.3905;0.3929;0.3954;0.3979;0.4004;0.403;0.4056;0.4082;0.4106;0.4129;0.4153;0.4177;0.4201;0.4222;0.4243;0.4265;0.4286;0.4307;0.4328;0.4348;0.4369;0.4389;0.441;0.443;0.4449;0.4469;0.449;0.4512;0.4539;0.4571;0.4606;0.4644;0.4686;0.473;0.4774;0.4819;0.4865;0.4914;0.4965;0.5019;0.5078;0.5138;0.52;0.5263;0.5328;0.5393;0.5457;0.5521;0.5585;0.5648;0.5709;0.5768;0.5825;0.588;0.5932;0.5981;0.6027;0.6071;0.6112;0.615;0.6184;0.6216;0.6244;0.6269;0.6291;0.631;0.6327;0.6344;0.6358;0.6371;0.6382;0.6392;0.64;0.6407;0.6414;0.6421;0.6428;0.6433;0.6436;0.6438;0.6439;0.6438;0.6436;0.6433;0.6431;0.6427;0.6421;0.6415;0.6409;0.6402;0.6395;0.6387;0.6378;0.6369;0.636;0.635;0.6341;0.6332;0.6321;0.6311;0.6301;0.6291;0.628;0.627;0.626;0.625;0.624;0.623;0.6222;0.6213;0.6204;0.6195;0.6187;0.6179;0.6171;0.6165;0.6159;0.6155;0.6151;0.6147;0.6143;0.6138;0.6134;0.6131;0.6128;0.6125;0.6123;0.612;0.6118;0.6115;0.6113;0.6111;0.6109;0.6107;0.6104;0.6101;0.6098;0.6095;0.6092;0.6087;0.6082;0.6077;0.6071;0.6064;0.6056;0.6047;0.6038;0.6027;0.6015;0.6003;0.599;0.5977;0.5963;0.5949;0.5935;0.5921;0.5907;0.5893;0.5879;0.5865;0.5851;0.5838;0.5825;0.5812;0.58;0.5788;0.5776;0.5765;0.5754;0.5744;0.5734;0.5726;0.5718;0.5711;0.5705;0.57;0.5695;0.5693;0.5693;0.5695;0.5698;0.5701;0.5704;0.5709;0.5715;0.5724;0.5735;0.575;0.5767;0.5788;0.5812;0.584;0.587;0.5899;0.5925;0.5949;0.5972;0.5993;0.6012;0.6027;0.604;0.6052;0.6066;0.6081;0.6098;0.6115;0.6132;0.615;0.6171;0.6194;0.6207;0.62;0.6181;0.6165;0.6159;0.6161;0.6164;0.6168;0.6174;0.6181;0.6189;0.6198;0.6208;0.6218;0.6223;0.6221;0.6215;0.621;0.6208;0.6206;0.6202;0.6196;0.6189;0.6181;0.6172;0.6162;0.6151;0.614;0.6128;0.6117;0.6107;0.6099;0.6091;0.6084;0.6078;0.607;0.6063;0.6054;0.6043;0.6032;0.602;0.6007;0.5993;0.5982;0.5973;0.5965;0.5959;0.596;0.5965;0.5974;0.599;0.6011;0.6036;0.6067;0.611;0.6171;0.6248;0.6337;0.644;0.6562;0.6703;0.6867;0.7052;0.7249;0.7458;0.7676;0.789;0.8091;0.8269;0.8429;0.8567;0.8681;0.8774;0.8842;0.8885;0.8904;0.8899;0.8874;0.8833;0.8782;0.8724;0.8661;0.8597;0.8532;0.8466;0.8402;0.8338;0.8275;0.8213;0.8152;0.8092;0.8033;0.7976;0.7921;0.7869;0.7821;0.7778;0.7739;0.7707;0.7681;0.7663;0.7652;0.7649;0.7653;0.7666;0.7687;0.7716;0.7751;0.779;0.7835;0.7883;0.7933;0.7983;0.8033;0.8081;0.8125;0.8167;0.8206;0.8242;0.8275;0.8305;0.8332;0.8355;0.8375;0.8392;0.8406;0.8418;0.8427;0.8432;0.8435;0.8434;0.8431;0.8423;0.8413;0.84;0.8383;0.8362;0.8338;0.8311;0.8282;0.8251;0.822;0.8188;0.8156;0.8123;0.8089;0.8057;0.8026;0.7995;0.7965;0.7936;0.7907;0.7878;0.785;0.7823;0.7798;0.7775;0.7756;0.774;0.773;0.7728;0.7736;0.7758;0.7795;0.785;0.792;0.8002;0.8092;0.8186;0.828;0.8374;0.8469;0.8562;0.8649;0.8718;0.8759;0.8782;0.8808;0.886;0.8941;0.9049;0.9156;0.9189;0.9136;0.9075;0.9048;0.9046;0.9051;0.9065;0.9095;0.9128;0.9129;0.9099;0.9076;0.9075;0.9083;0.9096;0.9117;0.9142;0.9166;0.9192;0.9229;0.9277;0.9335;0.9399;0.9468;0.9544;0.9629;0.9724;0.9827;0.9931;1.0029;1.0127;1.0227;1.0329;1.0427;1.0516;1.0597;1.0666;1.0718;1.0751;1.0765;1.0769;1.0766;1.0756;1.0735;1.0707;1.0674;1.0637;1.0601
0.2926;0.2926;0.2925;0.2921;0.2912;0.2904;0.2902;0.2903;0.2904;0.2902;0.2905;0.291;0.2908;0.2899;0.2887;0.288;0.2881;0.2884;0.2886;0.2882;0.2872;0.2865;0.2865;0.2869;0.2872;0.2872;0.2873;0.2874;0.2869;0.2861;0.2857;0.2858;0.2859;0.2855;0.2852;0.2851;0.285;0.2842;0.2832;0.2829;0.2834;0.2839;0.2839;0.2837;0.2834;0.2832;0.2833;0.2837;0.2838;0.2834;0.283;0.283;0.2829;0.2824;0.2821;0.2825;0.2828;0.2825;0.2821;0.282;0.2819;0.2819;0.2818;0.2816;0.2814;0.2813;0.2815;0.2817;0.2818;0.2817;0.2816;0.2817;0.2819;0.2819;0.2815;0.2813;0.2812;0.2812;0.281;0.2807;0.2808;0.281;0.2811;0.281;0.2804;0.2794;0.2788;0.2786;0.2786;0.2786;0.2787;0.2789;0.2787;0.2781;0.2776;0.2774;0.2771;0.2768;0.2764;0.276;0.2758;0.2754;0.2749;0.2746;0.2745;0.2745;0.2743;0.2741;0.2739;0.2737;0.2732;0.2728;0.2728;0.2727;0.2726;0.2724;0.2722;0.2721;0.2722;0.2723;0.2723;0.2719;0.2712;0.2709;0.271;0.2715;0.2717;0.2717;0.2714;0.271;0.2708;0.2708;0.2711;0.2713;0.2716;0.2719;0.2721;0.2721;0.2723;0.273;0.2733;0.2735;0.2734;0.2732;0.2734;0.2738;0.274;0.2742;0.2747;0.2754;0.276;0.2763;0.2765;0.2767;0.2769;0.2772;0.2776;0.278;0.2784;0.2789;0.2795;0.2799;0.2802;0.2804;0.2808;0.2813;0.2816;0.2816;0.2816;0.2816;0.2818;0.282;0.2825;0.2829;0.2831;0.2832;0.2833;0.2834;0.2836;0.2837;0.2835;0.2833;0.2832;0.2831;0.2829;0.283;0.2831;0.283;0.2827;0.2825;0.2823;0.2822;0.2822;0.2821;0.2821;0.2821;0.2819;0.2816;0.2815;0.2814;0.2812;0.2811;0.2811;0.2811;0.281;0.2809;0.2806;0.2802;0.2798;0.2796;0.2793;0.279;0.2786;0.2782;0.278;0.2778;0.2775;0.2772;0.2768;0.2765;0.2762;0.276;0.2758;0.2757;0.2754;0.2749;0.2743;0.2739;0.2737;0.2737;0.2735;0.2732;0.2727;0.2723;0.2719;0.2718;0.2715;0.2711;0.2706;0.2703;0.2702;0.2698;0.2694;0.269;0.2687;0.2683;0.2679;0.2676;0.2674;0.2671;0.2667;0.2664;0.2663;0.2662;0.2658;0.2654;0.2651;0.2648;0.2644;0.2641;0.2638;0.2634;0.2632;0.263;0.2627;0.2623;0.2619;0.2615;0.2612;0.261;0.2606;0.2602;0.2599;0.2596;0.2593;0.2591;0.259;0.259;0.2586;0.2581;0.2578;0.2577;0.2575;0.2571;0.2566;0.2565;0.2564;0.2562;0.2558;0.2556;0.2555;0.2554;0.2553;0.2553;0.2552;0.255;0.2545;0.2542;0.2541;0.254;0.2539;0.2539;0.2539;0.2538;0.2537;0.2535;0.2533;0.2532;0.2532;0.2532;0.2532;0.2532;0.2531;0.253;0.253;0.2529;0.2529;0.253;0.2531;0.2532;0.2532;0.2531;0.2531;0.2532;0.2535;0.2537;0.2539;0.2539;0.254;0.2542;0.2546;0.2551;0.2558;0.2566;0.2575;0.2583;0.2592;0.2602;0.2614;0.2627;0.2642;0.2657;0.2672;0.2688;0.2706;0.2724;0.2743;0.2763;0.2781;0.2798;0.2817;0.2838;0.2859;0.2879;0.29;0.292;0.2941;0.2962;0.2982;0.3001;0.302;0.304;0.306;0.308;0.3099;0.3117;0.3134;0.3151;0.3168;0.3184;0.3198;0.3213;0.3228;0.3242;0.3254;0.3266;0.3278;0.3292;0.3306;0.3319;0.3331;0.3344;0.3358;0.3371;0.3384;0.3397;0.341;0.3422;0.3434;0.3445;0.3454;0.3463;0.3471;0.3479;0.3486;0.3492;0.3497;0.3501;0.3503;0.3505;0.3509;0.3512;0.3513;0.3514;0.3514;0.3514;0.3512;0.3509;0.3505;0.3501;0.3496;0.3488;0.3479;0.3469;0.3458;0.3447;0.3434;0.3421;0.3407;0.3394;0.3381;0.3368;0.3354;0.3341;0.333;0.332;0.3309;0.3298;0.3286;0.3276;0.3269;0.3261;0.3252;0.3245;0.3238;0.3232;0.3226;0.322;0.3214;0.3209;0.3205;0.3201;0.3197;0.3194;0.3192;0.319;0.3187;0.3184;0.3181;0.3179;0.3178;0.3176;0.3175;0.3174;0.3173;0.3171;0.3169;0.3167;0.3165;0.3164;0.3163;0.3161;0.3158;0.3155;0.3153;0.315;0.3147;0.3144;0.3141;0.3137;0.3134;0.3131;0.3129;0.3127;0.3125;0.3123;0.3122;0.3121;0.3121;0.3121;0.312;0.3121;0.3123;0.3126;0.3129;0.3132;0.3136;0.314;0.3145;0.3152;0.316;0.3167;0.3176;0.3185;0.3195;0.3207;0.3219;0.3232;0.3246;0.3261;0.3277;0.3294;0.3312;0.3331;0.3351;0.3372;0.3393;0.3414;0.3437;0.3459;0.3481;0.3504;0.3527;0.3551;0.3573;0.3596;0.362;0.3643;0.3665;0.3688;0.3711;0.3733;0.3752;0.3771;0.379;0.381;0.383;0.385;0.3868;0.3886;0.3904;0.3923;0.3943;0.3961;0.398;0.3998;0.4019;0.4043;0.4072;0.4106;0.4143;0.4182;0.4224;0.4268;0.4313;0.436;0.4409;0.446;0.4515;0.4575;0.4638;0.4703;0.477;0.4839;0.4908;0.4979;0.5048;0.5118;0.5188;0.5255;0.5319;0.5383;0.5445;0.5505;0.5561;0.5614;0.5663;0.5709;0.5751;0.5791;0.5826;0.5859;0.5887;0.5913;0.5937;0.5957;0.5975;0.5991;0.6005;0.6018;0.6029;0.604;0.6048;0.6056;0.6063;0.6071;0.6076;0.6079;0.6081;0.6082;0.6083;0.6082;0.608;0.6076;0.6071;0.6064;0.6057;0.6048;0.604;0.6031;0.6023;0.6014;0.6004;0.5993;0.5982;0.5971;0.596;0.5949;0.5938;0.5926;0.5914;0.5903;0.5891;0.5879;0.5868;0.5856;0.5845;0.5835;0.5824;0.5814;0.5803;0.5793;0.5783;0.5776;0.5768;0.5761;0.5755;0.575;0.5746;0.5741;0.5737;0.5732;0.5728;0.5725;0.5722;0.5719;0.5715;0.5712;0.5709;0.5706;0.5704;0.5701;0.5699;0.5697;0.5694;0.5691;0.5687;0.5682;0.5677;0.5671;0.5665;0.5658;0.565;0.5641;0.563;0.5619;0.5608;0.5595;0.5581;0.5566;0.5551;0.5535;0.5519;0.5503;0.5487;0.5471;0.5455;0.544;0.5425;0.541;0.5395;0.538;0.5365;0.5351;0.5338;0.5324;0.5312;0.5299;0.5288;0.5277;0.5267;0.5258;0.525;0.5243;0.5237;0.5233;0.5231;0.5231;0.5232;0.5235;0.5238;0.5242;0.5246;0.5253;0.5263;0.5275;0.529;0.5309;0.5331;0.5356;0.5385;0.5414;0.5443;0.547;0.5494;0.5517;0.5538;0.5557;0.5572;0.5585;0.5598;0.5612;0.5629;0.5647;0.5666;0.5684;0.5703;0.5724;0.5746;0.576;0.5753;0.5734;0.5719;0.5712;0.5713;0.5715;0.5719;0.5724;0.573;0.5737;0.5746;0.5756;0.5766;0.5771;0.5769;0.5762;0.5757;0.5754;0.5752;0.5747;0.5741;0.5733;0.5723;0.5713;0.5702;0.569;0.5677;0.5664;0.5652;0.5641;0.5631;0.5622;0.5614;0.5606;0.5597;0.5589;0.5579;0.5567;0.5554;0.5541;0.5525;0.551;0.5497;0.5487;0.5478;0.5471;0.5471;0.5475;0.5484;0.5499;0.5521;0.5548;0.558;0.5626;0.569;0.5772;0.5869;0.5982;0.6115;0.6272;0.6456;0.6663;0.6886;0.7123;0.7368;0.7609;0.7836;0.8037;0.8216;0.8369;0.8495;0.8598;0.8674;0.8722;0.8744;0.8739;0.8712;0.8669;0.8613;0.855;0.8481;0.841;0.8337;0.8265;0.8193;0.8123;0.8052;0.7983;0.7914;0.7846;0.778;0.7715;0.7653;0.7593;0.7538;0.7487;0.7443;0.7406;0.7377;0.7356;0.7343;0.734;0.7347;0.7363;0.7389;0.7424;0.7466;0.7514;0.7568;0.7625;0.7684;0.7743;0.7802;0.7857;0.7908;0.7955;0.7999;0.804;0.8078;0.8111;0.814;0.8166;0.8188;0.8207;0.8223;0.8235;0.8245;0.8251;0.8254;0.8253;0.8248;0.824;0.8228;0.8212;0.8192;0.8169;0.8142;0.8112;0.8079;0.8044;0.8008;0.7973;0.7936;0.7899;0.7862;0.7824;0.7788;0.7752;0.7717;0.7682;0.7648;0.7614;0.758;0.7549;0.7519;0.7491;0.7467;0.7448;0.7436;0.7432;0.7442;0.7467;0.751;0.7572;0.7653;0.7747;0.7851;0.7957;0.8063;0.8167;0.8271;0.8371;0.8464;0.8536;0.8579;0.8602;0.8628;0.8681;0.8765;0.8875;0.8984;0.902;0.8972;0.8914;0.889;0.8887;0.8892;0.8906;0.8935;0.8965;0.8963;0.893;0.8905;0.8902;0.8909;0.892;0.894;0.8965;0.8989;0.9017;0.9055;0.9106;0.917;0.9241;0.9318;0.9401;0.9495;0.9599;0.9712;0.9828;0.9939;1.0049;1.0161;1.0275;1.0384;1.0482;1.0569;1.0643;1.07;1.0737;1.0755;1.0759;1.0753;1.0738;1.0714;1.0682;1.0644;1.0605;1.0568
0.2891;0.288;0.2874;0.2873;0.2872;0.287;0.287;0.2874;0.2875;0.2867;0.2859;0.2858;0.2862;0.2862;0.2857;0.2855;0.2854;0.2852;0.2853;0.2855;0.2852;0.2844;0.2839;0.284;0.2841;0.284;0.2838;0.2838;0.2839;0.2842;0.2842;0.2835;0.2825;0.2817;0.2818;0.2818;0.2815;0.2816;0.2821;0.2823;0.2819;0.2814;0.2809;0.28;0.2794;0.2797;0.2804;0.281;0.2811;0.2809;0.2808;0.2805;0.2801;0.2797;0.2796;0.2799;0.2805;0.2806;0.2801;0.28;0.2803;0.2807;0.2808;0.2806;0.2802;0.2801;0.2803;0.2807;0.281;0.2809;0.2807;0.2806;0.2805;0.2801;0.2797;0.2795;0.2794;0.2794;0.2793;0.2793;0.2792;0.279;0.279;0.2791;0.2786;0.2781;0.2778;0.2776;0.2774;0.2772;0.277;0.2767;0.2766;0.2762;0.2755;0.2751;0.2755;0.2755;0.2751;0.2749;0.2746;0.2742;0.2743;0.2746;0.2744;0.2739;0.2734;0.2731;0.2731;0.2729;0.2724;0.2719;0.2718;0.2715;0.2708;0.2702;0.2699;0.2702;0.2705;0.2706;0.2705;0.2702;0.2697;0.2692;0.2694;0.2699;0.2702;0.2702;0.2701;0.2703;0.2704;0.2704;0.2705;0.2708;0.271;0.271;0.2711;0.2713;0.2715;0.2716;0.2716;0.2718;0.2722;0.2728;0.2733;0.2738;0.274;0.2741;0.2742;0.2746;0.2749;0.2753;0.2758;0.2766;0.2771;0.2773;0.2776;0.2781;0.2785;0.2789;0.2795;0.28;0.2804;0.2807;0.281;0.2813;0.2814;0.2817;0.2823;0.2827;0.2828;0.2827;0.2826;0.2829;0.2834;0.2837;0.2838;0.284;0.2842;0.2842;0.2841;0.2839;0.2838;0.2839;0.284;0.284;0.284;0.2839;0.2837;0.2835;0.2833;0.2831;0.2831;0.2833;0.2834;0.2833;0.2831;0.2829;0.2827;0.2826;0.2826;0.2826;0.2824;0.282;0.2818;0.2816;0.2815;0.2812;0.2808;0.2805;0.2805;0.2804;0.2803;0.28;0.2797;0.2793;0.2789;0.2784;0.2781;0.2781;0.2781;0.2779;0.2775;0.2771;0.2766;0.2761;0.2758;0.2755;0.2752;0.2749;0.2747;0.2744;0.2741;0.2737;0.2732;0.2727;0.2724;0.2721;0.2719;0.2717;0.2714;0.2711;0.2708;0.2706;0.2704;0.2701;0.2697;0.2692;0.2689;0.2686;0.2684;0.2682;0.2678;0.2674;0.267;0.2666;0.2664;0.2664;0.2662;0.2658;0.2652;0.2648;0.2645;0.2643;0.2641;0.2639;0.2637;0.2632;0.2628;0.2624;0.262;0.2617;0.2614;0.2612;0.2609;0.2605;0.26;0.2598;0.2598;0.2596;0.2593;0.2589;0.2586;0.2584;0.2583;0.2581;0.2579;0.2577;0.2574;0.2571;0.2568;0.2565;0.2564;0.2563;0.2561;0.256;0.2559;0.2558;0.2556;0.2554;0.2552;0.2551;0.2549;0.2548;0.2548;0.2548;0.2546;0.2543;0.2542;0.2541;0.2541;0.2542;0.2542;0.2541;0.2539;0.2539;0.2539;0.254;0.254;0.2539;0.2539;0.2539;0.2539;0.254;0.2542;0.2545;0.2547;0.2551;0.2555;0.256;0.2565;0.2569;0.2574;0.258;0.2589;0.2599;0.261;0.2621;0.2635;0.265;0.2666;0.2683;0.2701;0.272;0.2739;0.2756;0.2774;0.2793;0.2813;0.2831;0.2851;0.2872;0.2894;0.2914;0.2934;0.2955;0.2975;0.2995;0.3015;0.3036;0.3056;0.3076;0.3095;0.3115;0.3135;0.3154;0.3172;0.319;0.3207;0.3224;0.324;0.3254;0.3267;0.3279;0.3293;0.3307;0.3321;0.3334;0.3348;0.3363;0.3377;0.339;0.3403;0.3416;0.3429;0.3442;0.3454;0.3465;0.3477;0.3488;0.3497;0.3504;0.351;0.3516;0.3523;0.3528;0.3532;0.3537;0.3542;0.3546;0.3549;0.355;0.3551;0.355;0.355;0.355;0.3551;0.3549;0.3545;0.354;0.3534;0.3526;0.3519;0.351;0.35;0.3488;0.3476;0.3462;0.3447;0.3432;0.3419;0.3406;0.3393;0.3381;0.3369;0.3358;0.3347;0.3337;0.3326;0.3316;0.3307;0.3299;0.3291;0.3283;0.3276;0.3269;0.3264;0.3257;0.3251;0.3245;0.3241;0.3238;0.3235;0.3232;0.3229;0.3226;0.3223;0.3221;0.3219;0.3217;0.3215;0.3213;0.3212;0.3211;0.321;0.3209;0.3207;0.3206;0.3205;0.3204;0.3202;0.32;0.3197;0.3194;0.3191;0.3188;0.3185;0.3182;0.3179;0.3175;0.3172;0.3169;0.3166;0.3164;0.3162;0.316;0.3158;0.3156;0.3156;0.3156;0.3156;0.3158;0.3159;0.3161;0.3164;0.3167;0.3171;0.3174;0.3179;0.3185;0.3193;0.3201;0.321;0.3218;0.3228;0.324;0.3252;0.3264;0.3278;0.3294;0.331;0.3326;0.3344;0.3362;0.3382;0.3403;0.3423;0.3445;0.3467;0.349;0.3513;0.3536;0.3559;0.3583;0.3607;0.363;0.3653;0.3676;0.3697;0.372;0.3744;0.3766;0.3786;0.3805;0.3825;0.3846;0.3865;0.3885;0.3903;0.3922;0.3941;0.3959;0.3977;0.3995;0.4012;0.4029;0.4048;0.4072;0.4102;0.4134;0.4169;0.4208;0.425;0.4293;0.4337;0.4381;0.4426;0.4473;0.4523;0.4579;0.4639;0.4699;0.4763;0.4829;0.4896;0.4965;0.5032;0.5099;0.5165;0.5228;0.5291;0.5353;0.5414;0.5472;0.5527;0.5579;0.5628;0.5673;0.5714;0.5753;0.5789;0.5821;0.5849;0.5874;0.5896;0.5917;0.5936;0.5953;0.5967;0.5979;0.599;0.6001;0.6011;0.6019;0.6027;0.6034;0.604;0.6045;0.6048;0.6049;0.605;0.6049;0.6047;0.6045;0.6042;0.6038;0.6032;0.6024;0.6017;0.601;0.6003;0.5995;0.5987;0.5977;0.5968;0.5959;0.5949;0.5938;0.5928;0.5917;0.5906;0.5895;0.5884;0.5873;0.5863;0.5853;0.5843;0.5832;0.5821;0.5811;0.5802;0.5793;0.5785;0.5778;0.5771;0.5765;0.5759;0.5754;0.575;0.5746;0.5742;0.5739;0.5736;0.5733;0.573;0.5727;0.5724;0.5721;0.5719;0.5716;0.5714;0.5712;0.5711;0.5709;0.5707;0.5704;0.5701;0.5697;0.5693;0.5689;0.5682;0.5676;0.5668;0.566;0.565;0.5639;0.5626;0.5613;0.5599;0.5585;0.557;0.5554;0.5539;0.5523;0.5507;0.5491;0.5475;0.546;0.5445;0.543;0.5415;0.54;0.5385;0.5371;0.5358;0.5345;0.5333;0.5321;0.5309;0.5298;0.5288;0.5279;0.5271;0.5264;0.5258;0.5254;0.5252;0.5252;0.5254;0.5258;0.5263;0.5268;0.5275;0.5285;0.5296;0.5311;0.5329;0.535;0.5374;0.5401;0.5431;0.5463;0.5494;0.5521;0.5545;0.5566;0.5587;0.5605;0.562;0.5634;0.5649;0.5667;0.5688;0.5711;0.5734;0.5757;0.578;0.5809;0.5842;0.5861;0.5852;0.5824;0.5798;0.5786;0.5782;0.578;0.5779;0.5781;0.5786;0.5793;0.5802;0.5814;0.5827;0.5834;0.583;0.5819;0.5811;0.5807;0.5804;0.5799;0.5793;0.5785;0.5776;0.5766;0.5755;0.5745;0.5733;0.5721;0.5709;0.5698;0.5688;0.5679;0.5672;0.5664;0.5656;0.5647;0.5638;0.5625;0.5612;0.5599;0.5584;0.5568;0.5556;0.5545;0.5535;0.5528;0.5526;0.5529;0.5537;0.5551;0.5571;0.5594;0.5623;0.5665;0.5726;0.5805;0.5896;0.6004;0.6132;0.6283;0.6461;0.6662;0.6878;0.7107;0.7346;0.7581;0.7801;0.7995;0.8168;0.8316;0.8439;0.8538;0.861;0.8654;0.8672;0.8666;0.8638;0.8594;0.8538;0.8474;0.8405;0.8334;0.8262;0.8192;0.8122;0.8054;0.7988;0.7922;0.7857;0.7793;0.773;0.7669;0.761;0.7554;0.7502;0.7456;0.7416;0.7383;0.7359;0.7344;0.7338;0.734;0.7352;0.7375;0.7407;0.7448;0.7498;0.7553;0.7613;0.7677;0.7742;0.7807;0.7871;0.7931;0.7986;0.8037;0.8083;0.8126;0.8165;0.82;0.8231;0.8257;0.828;0.83;0.8318;0.8333;0.8345;0.8353;0.8357;0.8357;0.8354;0.8347;0.8336;0.8321;0.8302;0.8279;0.8252;0.8223;0.819;0.8155;0.812;0.8085;0.8051;0.8017;0.7982;0.7946;0.7909;0.7873;0.7838;0.7804;0.777;0.7738;0.7706;0.7675;0.7645;0.7619;0.7597;0.7579;0.757;0.757;0.7583;0.7614;0.7665;0.7734;0.7821;0.7921;0.8028;0.8136;0.8243;0.835;0.8457;0.8563;0.8659;0.8735;0.8784;0.8814;0.8849;0.8913;0.9013;0.9149;0.9285;0.9322;0.924;0.9146;0.9106;0.91;0.9106;0.9122;0.9162;0.9208;0.9209;0.9164;0.9125;0.9117;0.9122;0.9134;0.9157;0.9184;0.9207;0.9231;0.9263;0.9309;0.9367;0.9433;0.9505;0.9587;0.9681;0.9787;0.9903;1.0018;1.0124;1.0225;1.0331;1.0441;1.055;1.065;1.0738;1.0812;1.0865;1.0896;1.0907;1.0904;1.0894;1.0875;1.0847;1.0809;1.0766;1.0721;1.0675
0.2912;0.2907;0.2906;0.2909;0.2909;0.2905;0.2898;0.2894;0.2891;0.2886;0.2879;0.2877;0.288;0.2882;0.2881;0.2879;0.2877;0.2874;0.2875;0.2876;0.2875;0.2872;0.2869;0.2863;0.2857;0.2854;0.2855;0.2858;0.2861;0.286;0.2859;0.2858;0.2852;0.2844;0.284;0.2839;0.284;0.2843;0.2844;0.2843;0.2842;0.284;0.2839;0.2837;0.2837;0.2841;0.2844;0.2845;0.2844;0.2842;0.284;0.2842;0.2844;0.2842;0.2842;0.2846;0.2848;0.2846;0.2844;0.2847;0.2849;0.2846;0.2843;0.2841;0.2839;0.2839;0.284;0.2841;0.2843;0.2848;0.2851;0.2849;0.2844;0.2839;0.284;0.2842;0.2841;0.2839;0.2838;0.2837;0.2833;0.2828;0.2827;0.2831;0.2832;0.2828;0.2823;0.282;0.2822;0.2821;0.2816;0.2813;0.2813;0.2811;0.2806;0.2802;0.2801;0.28;0.2798;0.2798;0.2797;0.2792;0.2787;0.2783;0.2782;0.2783;0.2782;0.2781;0.278;0.2776;0.2773;0.2771;0.2771;0.2765;0.276;0.2757;0.2754;0.2751;0.2751;0.2752;0.2752;0.2751;0.2748;0.2747;0.2751;0.2756;0.2759;0.2758;0.2757;0.2759;0.2761;0.276;0.2759;0.276;0.2762;0.2765;0.277;0.2774;0.2775;0.2777;0.2779;0.2783;0.2787;0.279;0.2791;0.2794;0.2801;0.2806;0.2806;0.2808;0.2813;0.2819;0.2824;0.283;0.2835;0.2839;0.2843;0.2846;0.2852;0.2859;0.2866;0.2872;0.2876;0.2879;0.2883;0.2886;0.2887;0.2891;0.2898;0.2902;0.2901;0.2899;0.2902;0.291;0.2917;0.292;0.2921;0.2921;0.2919;0.2917;0.2915;0.2914;0.2914;0.2916;0.2917;0.2915;0.2915;0.2916;0.2916;0.2915;0.2916;0.2914;0.2912;0.2913;0.2913;0.2913;0.2912;0.2911;0.2909;0.2907;0.2907;0.2906;0.2905;0.2902;0.2898;0.2895;0.2895;0.2895;0.2892;0.2888;0.2886;0.2885;0.2884;0.2884;0.2883;0.288;0.2875;0.287;0.2865;0.2863;0.2861;0.286;0.2859;0.2856;0.285;0.2845;0.284;0.2837;0.2834;0.2831;0.2828;0.2826;0.2824;0.282;0.2815;0.281;0.2808;0.2805;0.2802;0.2801;0.2799;0.2797;0.2794;0.2791;0.2787;0.2783;0.2778;0.2775;0.2773;0.2772;0.2769;0.2766;0.2762;0.2757;0.2753;0.2751;0.2748;0.2744;0.2741;0.2737;0.2733;0.2728;0.2725;0.2723;0.2721;0.2719;0.2717;0.2713;0.2707;0.2703;0.2701;0.2699;0.2696;0.2692;0.2688;0.2684;0.2681;0.2679;0.2678;0.2677;0.2674;0.267;0.2667;0.2665;0.2663;0.266;0.2658;0.2655;0.2651;0.2647;0.2645;0.2644;0.2644;0.2642;0.264;0.2639;0.2639;0.2638;0.2638;0.2637;0.2635;0.2632;0.2631;0.263;0.2629;0.2627;0.2625;0.2624;0.2624;0.2624;0.2625;0.2627;0.2627;0.2625;0.2623;0.2622;0.2623;0.2624;0.2623;0.2623;0.2623;0.2623;0.2623;0.2625;0.2627;0.2629;0.2631;0.2635;0.2639;0.2644;0.2649;0.2655;0.266;0.2666;0.2675;0.2686;0.2697;0.2709;0.2724;0.2741;0.2759;0.2776;0.2793;0.2813;0.2832;0.2851;0.2869;0.2888;0.291;0.2931;0.2952;0.2974;0.2995;0.3017;0.304;0.3061;0.3083;0.3105;0.3126;0.3147;0.3169;0.319;0.3211;0.3231;0.325;0.3268;0.3288;0.3307;0.3326;0.3344;0.3361;0.3376;0.3389;0.3402;0.3416;0.3431;0.3446;0.346;0.3474;0.3489;0.3504;0.3518;0.3531;0.3545;0.356;0.3575;0.3589;0.3601;0.3612;0.3623;0.3633;0.3642;0.3649;0.3656;0.3663;0.3668;0.3673;0.3678;0.3683;0.3686;0.3689;0.3691;0.3692;0.3692;0.3692;0.3691;0.369;0.3689;0.3685;0.3679;0.367;0.3662;0.3654;0.3645;0.3634;0.3623;0.3611;0.3597;0.358;0.3563;0.3548;0.3534;0.3521;0.3508;0.3495;0.3482;0.3469;0.3459;0.3449;0.3439;0.343;0.3422;0.3413;0.3405;0.3397;0.339;0.3384;0.3377;0.3371;0.3366;0.3361;0.3357;0.3354;0.3351;0.3348;0.3345;0.3342;0.334;0.3338;0.3336;0.3334;0.3332;0.333;0.3329;0.3327;0.3326;0.3325;0.3324;0.3322;0.332;0.3318;0.3316;0.3314;0.3312;0.3309;0.3306;0.3302;0.3297;0.3293;0.329;0.3287;0.3284;0.3282;0.328;0.3278;0.3276;0.3274;0.3273;0.3272;0.3272;0.3272;0.3273;0.3275;0.3278;0.3281;0.3284;0.3288;0.3292;0.3297;0.3303;0.331;0.3318;0.3328;0.3338;0.3348;0.336;0.3373;0.3386;0.3401;0.3417;0.3434;0.3452;0.347;0.3488;0.3508;0.3529;0.355;0.3572;0.3595;0.3618;0.3642;0.3666;0.3691;0.3715;0.3739;0.3762;0.3785;0.3808;0.3831;0.3855;0.3879;0.3901;0.3921;0.394;0.3961;0.3981;0.4001;0.4021;0.404;0.4058;0.4078;0.4098;0.4116;0.4134;0.4152;0.417;0.419;0.4214;0.4244;0.4276;0.4312;0.4351;0.4394;0.4438;0.4482;0.4525;0.457;0.4616;0.4665;0.4721;0.4781;0.4842;0.4905;0.4969;0.5035;0.5102;0.5169;0.5235;0.53;0.5363;0.5424;0.5485;0.5546;0.5603;0.5657;0.5707;0.5754;0.5798;0.584;0.5878;0.5913;0.5944;0.5972;0.5997;0.602;0.604;0.6058;0.6074;0.6088;0.6101;0.6113;0.6124;0.6133;0.6141;0.6148;0.6155;0.616;0.6165;0.6169;0.6171;0.6172;0.6171;0.617;0.6168;0.6165;0.6161;0.6154;0.6147;0.614;0.6133;0.6126;0.6119;0.6111;0.6103;0.6094;0.6084;0.6075;0.6065;0.6055;0.6044;0.6034;0.6024;0.6014;0.6004;0.5994;0.5984;0.5974;0.5964;0.5954;0.5945;0.5936;0.5928;0.5921;0.5915;0.5909;0.5903;0.5898;0.5892;0.5888;0.5885;0.5882;0.5879;0.5875;0.5872;0.587;0.5867;0.5865;0.5862;0.586;0.5859;0.5857;0.5856;0.5854;0.5852;0.585;0.5847;0.5845;0.5842;0.5839;0.5834;0.5828;0.5821;0.5813;0.5804;0.5795;0.5785;0.5773;0.5761;0.5748;0.5734;0.5719;0.5705;0.569;0.5674;0.5659;0.5643;0.5628;0.5613;0.5599;0.5584;0.5569;0.5555;0.5542;0.5528;0.5515;0.5503;0.549;0.5479;0.5468;0.5457;0.5447;0.5438;0.543;0.5423;0.5417;0.5412;0.5409;0.5408;0.5409;0.5412;0.5416;0.542;0.5426;0.5435;0.5446;0.5461;0.5478;0.5498;0.5522;0.555;0.5581;0.5613;0.5645;0.5673;0.5698;0.5721;0.5743;0.5763;0.5779;0.5794;0.5809;0.5827;0.5847;0.5869;0.5893;0.5916;0.594;0.5971;0.6005;0.6026;0.6017;0.5986;0.5959;0.5947;0.5943;0.5941;0.594;0.5941;0.5947;0.5955;0.5965;0.5977;0.599;0.5997;0.5992;0.598;0.5972;0.5967;0.5964;0.5959;0.5952;0.5943;0.5934;0.5924;0.5913;0.5903;0.5891;0.5879;0.5867;0.5856;0.5846;0.5838;0.583;0.5822;0.5814;0.5806;0.5796;0.5783;0.577;0.5757;0.5742;0.5727;0.5715;0.5705;0.5695;0.5688;0.5687;0.569;0.5697;0.5711;0.5731;0.5754;0.5782;0.5822;0.5882;0.5959;0.6047;0.6151;0.6273;0.6418;0.6587;0.6778;0.6983;0.7203;0.7432;0.7659;0.7873;0.8064;0.8234;0.8381;0.8503;0.8603;0.8677;0.8723;0.8744;0.874;0.8716;0.8674;0.8621;0.856;0.8495;0.8426;0.8358;0.829;0.8223;0.8157;0.8093;0.803;0.7967;0.7905;0.7844;0.7784;0.7727;0.7674;0.7624;0.758;0.7541;0.751;0.7487;0.7472;0.7466;0.7468;0.7479;0.75;0.7531;0.757;0.7617;0.7669;0.7725;0.7785;0.7846;0.7908;0.7968;0.8025;0.8077;0.8125;0.8169;0.8209;0.8247;0.828;0.8309;0.8335;0.8358;0.8377;0.8394;0.8408;0.8419;0.8427;0.8432;0.8432;0.8429;0.8421;0.841;0.8394;0.8375;0.8352;0.8326;0.8297;0.8265;0.8232;0.8198;0.8164;0.813;0.8095;0.806;0.8026;0.799;0.7955;0.7921;0.7888;0.7855;0.7823;0.7792;0.7761;0.7733;0.7706;0.7683;0.7665;0.7654;0.7653;0.7664;0.7691;0.7737;0.7801;0.7883;0.7978;0.8081;0.8187;0.8294;0.8402;0.8511;0.8619;0.872;0.8801;0.8854;0.8885;0.8921;0.8988;0.9091;0.9232;0.9373;0.9406;0.931;0.9205;0.916;0.9153;0.9158;0.9176;0.9219;0.927;0.9271;0.9224;0.9185;0.9179;0.9187;0.9201;0.9227;0.9256;0.928;0.9304;0.9337;0.9384;0.9441;0.9506;0.9578;0.9658;0.9749;0.9852;0.9964;1.0074;1.0174;1.0269;1.0369;1.0473;1.0575;1.067;1.0754;1.0825;1.0876;1.0905;1.0913;1.0911;1.0903;1.0885;1.0858;1.082;1.0776;1.073;1.0684
0.2885;0.288;0.2874;0.2874;0.2874;0.2871;0.2867;0.2863;0.2859;0.2851;0.2844;0.2845;0.285;0.2853;0.2853;0.2854;0.2851;0.2843;0.2837;0.2835;0.2834;0.2829;0.2823;0.2822;0.2825;0.2827;0.2826;0.2826;0.2826;0.2824;0.2822;0.282;0.2812;0.2802;0.2798;0.2798;0.2799;0.2801;0.28;0.28;0.2801;0.2801;0.2798;0.2792;0.2788;0.2792;0.2798;0.2801;0.2799;0.2797;0.2794;0.2789;0.2785;0.2785;0.279;0.2795;0.2799;0.2796;0.2792;0.2792;0.2793;0.2792;0.2792;0.2789;0.2783;0.2779;0.2779;0.2781;0.2782;0.2783;0.2783;0.2785;0.2784;0.2782;0.2779;0.2778;0.2777;0.2775;0.2774;0.277;0.2765;0.2762;0.2764;0.2767;0.2764;0.2759;0.2759;0.2762;0.2761;0.2757;0.2749;0.2742;0.274;0.2737;0.2732;0.273;0.2732;0.2734;0.2732;0.2731;0.2728;0.2721;0.2717;0.2714;0.2711;0.2708;0.2707;0.2706;0.2705;0.2702;0.2701;0.2699;0.2696;0.2692;0.2686;0.2681;0.2679;0.2676;0.2675;0.2675;0.2675;0.2675;0.2674;0.2673;0.2674;0.2677;0.2678;0.2675;0.2673;0.2674;0.2676;0.2677;0.2678;0.2679;0.268;0.2684;0.2686;0.2688;0.2692;0.2695;0.2693;0.269;0.2692;0.2698;0.2704;0.2706;0.2707;0.2707;0.2708;0.2711;0.2716;0.2725;0.2733;0.2738;0.274;0.2742;0.2747;0.2751;0.2754;0.2759;0.2767;0.2771;0.2771;0.2771;0.2774;0.2778;0.2779;0.2779;0.2785;0.2793;0.2795;0.2794;0.2796;0.28;0.2802;0.2803;0.2804;0.2804;0.2803;0.2802;0.2803;0.2805;0.2804;0.2803;0.2801;0.2799;0.2801;0.2803;0.2802;0.2799;0.2798;0.2797;0.2797;0.2797;0.2795;0.2793;0.2793;0.2793;0.2794;0.2793;0.279;0.2787;0.2784;0.2783;0.2781;0.2778;0.2777;0.2776;0.2772;0.2769;0.2768;0.2768;0.2767;0.2764;0.2762;0.2758;0.2751;0.2744;0.2741;0.2741;0.2741;0.274;0.2738;0.2736;0.2732;0.2727;0.2721;0.2716;0.2714;0.2712;0.2709;0.2707;0.2705;0.2701;0.2697;0.2692;0.2688;0.2685;0.2683;0.2682;0.268;0.2677;0.2675;0.2672;0.267;0.2666;0.2661;0.2657;0.2655;0.2654;0.2654;0.2651;0.2646;0.2641;0.2638;0.2635;0.2631;0.2627;0.2623;0.2619;0.2615;0.2612;0.2609;0.2608;0.2606;0.2604;0.2601;0.2596;0.2591;0.2588;0.2587;0.2585;0.2582;0.2579;0.2576;0.2571;0.2566;0.2563;0.2562;0.2561;0.2559;0.2556;0.2553;0.2551;0.2548;0.2545;0.2542;0.2539;0.2537;0.2535;0.2532;0.2531;0.253;0.2528;0.2525;0.2524;0.2523;0.2522;0.2522;0.2523;0.2522;0.2517;0.2514;0.2513;0.2513;0.2512;0.2511;0.251;0.2509;0.2509;0.2507;0.2506;0.2505;0.2505;0.2506;0.2507;0.2507;0.2507;0.2507;0.2507;0.2507;0.2506;0.2506;0.2507;0.2509;0.2512;0.2514;0.2516;0.2519;0.2523;0.2527;0.2531;0.2536;0.2543;0.2552;0.2563;0.2574;0.2584;0.2597;0.2612;0.2628;0.2644;0.266;0.2678;0.2695;0.2711;0.2728;0.2747;0.2767;0.2786;0.2805;0.2825;0.2845;0.2864;0.2885;0.2905;0.2925;0.2944;0.2963;0.2982;0.3001;0.302;0.3039;0.3059;0.3079;0.3097;0.3115;0.3132;0.3148;0.3165;0.318;0.3195;0.3208;0.322;0.3232;0.3245;0.3258;0.3271;0.3285;0.3298;0.3312;0.3326;0.3339;0.3352;0.3366;0.338;0.3392;0.3404;0.3416;0.3425;0.3432;0.3438;0.3444;0.3451;0.3458;0.3464;0.3468;0.3472;0.3476;0.3479;0.3481;0.3481;0.3482;0.3483;0.3483;0.3482;0.3481;0.348;0.3476;0.3471;0.3466;0.346;0.3453;0.3444;0.3433;0.342;0.3408;0.3395;0.3382;0.3367;0.3352;0.3339;0.3328;0.3317;0.3304;0.3291;0.3281;0.3271;0.3261;0.3251;0.3243;0.3235;0.3226;0.3218;0.3211;0.3206;0.32;0.3194;0.3188;0.3183;0.3178;0.3175;0.3173;0.3169;0.3166;0.3163;0.316;0.3158;0.3156;0.3155;0.3153;0.3151;0.315;0.3149;0.3148;0.3147;0.3146;0.3144;0.3143;0.3141;0.314;0.3137;0.3135;0.3132;0.313;0.3126;0.3122;0.3118;0.3115;0.3112;0.3109;0.3106;0.3104;0.3101;0.3099;0.3097;0.3096;0.3095;0.3095;0.3095;0.3095;0.3095;0.3096;0.3098;0.31;0.3104;0.3108;0.3112;0.3116;0.3121;0.3128;0.3136;0.3145;0.3154;0.3163;0.3174;0.3186;0.3199;0.3213;0.3227;0.3242;0.3258;0.3275;0.3293;0.3313;0.3332;0.3352;0.3373;0.3394;0.3415;0.3438;0.346;0.3483;0.3506;0.353;0.3553;0.3575;0.3597;0.3618;0.364;0.3663;0.3685;0.3704;0.3722;0.3742;0.3762;0.3781;0.3799;0.3817;0.3835;0.3854;0.3872;0.3889;0.3906;0.3923;0.394;0.3959;0.3983;0.4011;0.4043;0.4077;0.4115;0.4155;0.4197;0.424;0.4283;0.4327;0.4372;0.4421;0.4476;0.4535;0.4596;0.4659;0.4723;0.4789;0.4856;0.4924;0.4991;0.5058;0.5121;0.5183;0.5244;0.5304;0.5362;0.5417;0.5469;0.5518;0.5563;0.5605;0.5643;0.5679;0.5711;0.574;0.5765;0.5788;0.5808;0.5827;0.5844;0.5859;0.5872;0.5883;0.5893;0.5901;0.5909;0.5918;0.5924;0.593;0.5935;0.5939;0.594;0.594;0.5939;0.5938;0.5935;0.5932;0.5927;0.592;0.5913;0.5906;0.5898;0.5891;0.5882;0.5874;0.5864;0.5854;0.5845;0.5835;0.5825;0.5814;0.5803;0.5793;0.5782;0.5772;0.5761;0.575;0.574;0.573;0.5719;0.5709;0.5699;0.569;0.5682;0.5674;0.5666;0.5659;0.5653;0.5648;0.5643;0.5639;0.5635;0.5631;0.5628;0.5625;0.5622;0.5619;0.5616;0.5613;0.561;0.5608;0.5606;0.5604;0.5602;0.5601;0.5599;0.5597;0.5594;0.5591;0.5587;0.5583;0.5578;0.5572;0.5565;0.5558;0.5549;0.554;0.5529;0.5517;0.5504;0.549;0.5475;0.5461;0.5445;0.543;0.5414;0.5398;0.5382;0.5367;0.5352;0.5337;0.5322;0.5307;0.5292;0.5278;0.5264;0.5251;0.5238;0.5226;0.5213;0.5202;0.5191;0.5181;0.5172;0.5164;0.5157;0.5151;0.5147;0.5144;0.5144;0.5145;0.5148;0.5152;0.5157;0.5164;0.5173;0.5184;0.5199;0.5216;0.5237;0.5261;0.5289;0.5319;0.5351;0.5381;0.5409;0.5433;0.5456;0.5476;0.5495;0.5511;0.5525;0.554;0.5556;0.5577;0.5599;0.5622;0.5644;0.5668;0.5698;0.573;0.575;0.574;0.5712;0.5687;0.5674;0.5671;0.567;0.5669;0.567;0.5675;0.5682;0.5691;0.5703;0.5716;0.5723;0.5719;0.5708;0.57;0.5696;0.5692;0.5688;0.5681;0.5672;0.5663;0.5653;0.5642;0.5631;0.562;0.5608;0.5596;0.5585;0.5575;0.5566;0.5558;0.5551;0.5542;0.5533;0.5524;0.5511;0.5499;0.5486;0.5471;0.5455;0.5442;0.5432;0.5422;0.5414;0.5413;0.5416;0.5423;0.5438;0.5458;0.5481;0.5509;0.555;0.561;0.5688;0.578;0.5886;0.6013;0.6164;0.6341;0.6541;0.6756;0.6986;0.7225;0.7461;0.7683;0.788;0.8055;0.8206;0.8331;0.8433;0.8508;0.8554;0.8574;0.8568;0.854;0.8496;0.844;0.8375;0.8306;0.8235;0.8162;0.8091;0.8021;0.7953;0.7885;0.7818;0.7752;0.7687;0.7623;0.7561;0.7502;0.7446;0.7395;0.7348;0.7308;0.7275;0.7251;0.7235;0.7229;0.7232;0.7244;0.7265;0.7298;0.7339;0.7388;0.7442;0.7501;0.7564;0.7629;0.7693;0.7756;0.7815;0.787;0.792;0.7966;0.8009;0.8049;0.8084;0.8115;0.8143;0.8167;0.8187;0.8205;0.8219;0.8231;0.8239;0.8243;0.8243;0.824;0.8232;0.822;0.8204;0.8184;0.816;0.8133;0.8102;0.8068;0.8033;0.7997;0.7962;0.7926;0.789;0.7854;0.7816;0.7779;0.7743;0.7708;0.7673;0.7639;0.7606;0.7573;0.7541;0.7511;0.7483;0.746;0.7442;0.7432;0.7431;0.7443;0.7472;0.752;0.7588;0.7674;0.7773;0.788;0.799;0.8101;0.8211;0.832;0.8428;0.8529;0.8609;0.8661;0.8692;0.8728;0.8794;0.8894;0.9029;0.9164;0.9198;0.9111;0.9016;0.8974;0.8968;0.8973;0.8989;0.9029;0.9075;0.9075;0.9029;0.8991;0.8985;0.8992;0.9005;0.9029;0.9057;0.908;0.9104;0.9138;0.9186;0.9246;0.9314;0.9388;0.9471;0.9566;0.9673;0.979;0.9905;1.0012;1.0114;1.022;1.0331;1.0438;1.0536;1.0623;1.0698;1.0752;1.0782;1.0792;1.0791;1.0782;1.0763;1.0733;1.0695;1.0652;1.0605;1.0557
0.2873;0.2865;0.2861;0.2864;0.2866;0.2864;0.2859;0.2854;0.2853;0.2851;0.2848;0.2844;0.2843;0.2842;0.284;0.2839;0.2837;0.2834;0.2832;0.2834;0.2834;0.2829;0.2827;0.2828;0.2826;0.2818;0.281;0.2806;0.281;0.2815;0.2819;0.2818;0.2811;0.2805;0.2803;0.2803;0.2802;0.2803;0.2804;0.2801;0.2796;0.2796;0.2798;0.2798;0.2792;0.2789;0.2791;0.2797;0.2799;0.2797;0.2792;0.2789;0.279;0.2792;0.2793;0.2794;0.2795;0.2791;0.2788;0.2793;0.2798;0.2798;0.2793;0.2788;0.2785;0.2782;0.2782;0.2787;0.2791;0.2791;0.2789;0.279;0.2793;0.2791;0.2786;0.2782;0.2782;0.2781;0.2781;0.2779;0.2777;0.2776;0.2777;0.2777;0.2772;0.2765;0.2762;0.2762;0.2763;0.2762;0.2755;0.275;0.2748;0.2746;0.2742;0.2741;0.2744;0.2744;0.2743;0.2742;0.2738;0.2733;0.2729;0.2728;0.2729;0.2729;0.2726;0.272;0.2716;0.2716;0.2717;0.2715;0.2709;0.2703;0.2698;0.2694;0.2691;0.269;0.2692;0.2693;0.2692;0.2687;0.2682;0.2683;0.2688;0.2693;0.2692;0.2689;0.269;0.2695;0.2696;0.2695;0.2694;0.2695;0.2695;0.2697;0.27;0.2704;0.2706;0.2705;0.2705;0.2711;0.2716;0.2718;0.272;0.2724;0.2728;0.273;0.2731;0.2736;0.2742;0.2745;0.2746;0.2751;0.2756;0.2761;0.2766;0.2771;0.2774;0.2776;0.278;0.2784;0.2788;0.2792;0.2795;0.2797;0.2798;0.2803;0.2811;0.2815;0.2816;0.2815;0.2816;0.282;0.2822;0.2823;0.2824;0.2825;0.2824;0.2824;0.2826;0.2828;0.2828;0.2828;0.2826;0.2823;0.2824;0.2827;0.2827;0.2824;0.2821;0.2819;0.2819;0.2819;0.2818;0.2816;0.2814;0.2815;0.2815;0.2813;0.2811;0.2812;0.2811;0.2806;0.2801;0.2799;0.28;0.28;0.2798;0.2794;0.2792;0.2791;0.2789;0.2787;0.2785;0.2782;0.2778;0.2774;0.277;0.2769;0.2767;0.2765;0.2763;0.2761;0.2758;0.2754;0.2749;0.2745;0.2742;0.2738;0.2736;0.2734;0.2733;0.273;0.2726;0.2723;0.2719;0.2715;0.2712;0.271;0.2708;0.2706;0.2705;0.2701;0.2697;0.2693;0.269;0.2686;0.2683;0.268;0.2677;0.2676;0.2674;0.2671;0.2667;0.2664;0.2662;0.266;0.2658;0.2654;0.2649;0.2645;0.2644;0.2641;0.2637;0.2633;0.2629;0.2625;0.2621;0.2618;0.2617;0.2614;0.2611;0.2609;0.2607;0.2605;0.2601;0.2599;0.2596;0.2594;0.259;0.2587;0.2585;0.2582;0.2581;0.2579;0.2577;0.2575;0.257;0.2567;0.2566;0.2565;0.2564;0.2563;0.2561;0.2558;0.2557;0.2557;0.2556;0.2554;0.2552;0.2551;0.2551;0.2551;0.2551;0.2549;0.2547;0.2544;0.2544;0.2544;0.2544;0.2545;0.2546;0.2546;0.2544;0.2543;0.2544;0.2544;0.2543;0.2543;0.2543;0.2543;0.2543;0.2543;0.2545;0.2547;0.255;0.2554;0.2558;0.2562;0.2566;0.257;0.2575;0.2582;0.2591;0.2601;0.2611;0.2621;0.2633;0.2647;0.2663;0.2679;0.2695;0.2713;0.273;0.2747;0.2765;0.2784;0.2801;0.2818;0.2838;0.2859;0.288;0.2899;0.2918;0.2938;0.2957;0.2976;0.2996;0.3015;0.3033;0.3053;0.3072;0.3092;0.311;0.3128;0.3144;0.3161;0.3177;0.3194;0.3209;0.3222;0.3234;0.3246;0.3258;0.3272;0.3285;0.3298;0.3311;0.3325;0.3339;0.3351;0.3364;0.3378;0.3391;0.3404;0.3416;0.3426;0.3437;0.3447;0.3455;0.3463;0.347;0.3476;0.3482;0.3488;0.3493;0.3497;0.3501;0.3505;0.3507;0.3509;0.351;0.3511;0.3512;0.3512;0.3512;0.351;0.3508;0.3504;0.3497;0.3488;0.348;0.3472;0.3462;0.3451;0.3439;0.3426;0.3411;0.3397;0.3384;0.3371;0.3359;0.3347;0.3335;0.3323;0.3312;0.3303;0.3294;0.3284;0.3274;0.3265;0.3257;0.3249;0.3243;0.3238;0.3232;0.3227;0.3221;0.3215;0.3211;0.3208;0.3205;0.3201;0.3198;0.3195;0.3193;0.319;0.3188;0.3187;0.3185;0.3184;0.3183;0.3182;0.318;0.3178;0.3177;0.3176;0.3175;0.3174;0.3172;0.3169;0.3167;0.3164;0.3162;0.316;0.3156;0.3153;0.3149;0.3147;0.3145;0.3142;0.3139;0.3136;0.3134;0.3132;0.3131;0.313;0.313;0.313;0.313;0.313;0.3131;0.3133;0.3136;0.3139;0.3143;0.3147;0.3151;0.3156;0.3163;0.3171;0.3179;0.3188;0.3198;0.3209;0.3221;0.3233;0.3246;0.326;0.3275;0.3291;0.3307;0.3325;0.3343;0.3362;0.3382;0.3402;0.3422;0.3444;0.3467;0.3489;0.351;0.3533;0.3555;0.3577;0.3599;0.362;0.3641;0.3662;0.3684;0.3705;0.3724;0.3742;0.3761;0.378;0.38;0.3818;0.3835;0.3853;0.3871;0.3889;0.3906;0.3922;0.3939;0.3955;0.3974;0.3996;0.4024;0.4055;0.4088;0.4126;0.4166;0.4206;0.4247;0.4288;0.4332;0.4376;0.4423;0.4476;0.4533;0.4591;0.4653;0.4717;0.4782;0.4848;0.4914;0.4979;0.5043;0.5106;0.5167;0.5228;0.5288;0.5346;0.5401;0.5452;0.55;0.5545;0.5586;0.5625;0.566;0.5693;0.5722;0.5747;0.5769;0.5789;0.5807;0.5824;0.584;0.5852;0.5864;0.5874;0.5884;0.5891;0.5899;0.5907;0.5913;0.5917;0.592;0.5923;0.5923;0.5922;0.5921;0.5919;0.5915;0.5909;0.5903;0.5897;0.589;0.5883;0.5876;0.5868;0.5859;0.5849;0.584;0.583;0.582;0.581;0.58;0.579;0.5779;0.5769;0.5758;0.5747;0.5737;0.5727;0.5716;0.5706;0.5697;0.5687;0.5678;0.5669;0.5662;0.5654;0.5648;0.5641;0.5636;0.5632;0.5628;0.5625;0.5622;0.5619;0.5616;0.5613;0.561;0.5608;0.5605;0.5602;0.56;0.5598;0.5596;0.5595;0.5594;0.5593;0.559;0.5587;0.5584;0.5581;0.5576;0.5571;0.5565;0.5559;0.5552;0.5544;0.5535;0.5524;0.5512;0.5499;0.5485;0.5471;0.5456;0.5441;0.5426;0.5411;0.5395;0.5379;0.5364;0.5349;0.5334;0.532;0.5305;0.5291;0.5277;0.5264;0.5251;0.5238;0.5226;0.5214;0.5203;0.5193;0.5183;0.5174;0.5166;0.5159;0.5154;0.5149;0.5147;0.5147;0.5148;0.5151;0.5155;0.516;0.5165;0.5173;0.5184;0.5198;0.5215;0.5234;0.5257;0.5283;0.5312;0.5343;0.5373;0.54;0.5425;0.5448;0.5469;0.5488;0.5505;0.552;0.5535;0.5552;0.5572;0.5594;0.5617;0.564;0.5663;0.5693;0.5726;0.5746;0.5735;0.5704;0.5677;0.5664;0.5661;0.566;0.5659;0.5661;0.5666;0.5675;0.5684;0.5697;0.571;0.5717;0.5712;0.5701;0.5693;0.5689;0.5686;0.5681;0.5674;0.5665;0.5655;0.5645;0.5635;0.5625;0.5614;0.5602;0.559;0.5579;0.5569;0.556;0.5553;0.5545;0.5537;0.5529;0.5519;0.5507;0.5494;0.5481;0.5467;0.5451;0.5439;0.5429;0.5419;0.5411;0.541;0.5413;0.542;0.5434;0.5453;0.5475;0.5502;0.5542;0.56;0.5675;0.5764;0.5867;0.599;0.6136;0.6308;0.6504;0.6715;0.6942;0.7178;0.7412;0.7633;0.7829;0.8004;0.8155;0.8281;0.8383;0.8458;0.8505;0.8526;0.8521;0.8494;0.8451;0.8395;0.8331;0.8262;0.819;0.8118;0.8048;0.7977;0.7908;0.7841;0.7774;0.7708;0.7643;0.7579;0.7517;0.7458;0.7402;0.7351;0.7305;0.7265;0.7233;0.7209;0.7194;0.7188;0.719;0.7201;0.7223;0.7256;0.7297;0.7346;0.7401;0.746;0.7523;0.7588;0.7652;0.7716;0.7776;0.7832;0.7883;0.7931;0.7975;0.8015;0.8052;0.8083;0.8111;0.8135;0.8156;0.8174;0.8189;0.8201;0.8209;0.8214;0.8213;0.821;0.8202;0.819;0.8173;0.8152;0.8128;0.81;0.8069;0.8034;0.7997;0.7959;0.7923;0.7886;0.7849;0.7812;0.7775;0.7737;0.7701;0.7665;0.7629;0.7594;0.756;0.7528;0.7496;0.7466;0.7439;0.7416;0.7398;0.7389;0.7389;0.7402;0.7431;0.7479;0.7547;0.7633;0.7732;0.7838;0.7947;0.8056;0.8167;0.8279;0.8389;0.8491;0.8573;0.8625;0.8654;0.8689;0.8755;0.8859;0.9001;0.9142;0.9177;0.9085;0.8984;0.894;0.8932;0.8936;0.8952;0.8994;0.9043;0.9044;0.8996;0.8957;0.895;0.8956;0.8969;0.8994;0.9023;0.9047;0.907;0.9104;0.9152;0.9212;0.928;0.9354;0.9438;0.9534;0.9642;0.976;0.9874;0.9978;1.0077;1.0182;1.0292;1.0399;1.0498;1.0585;1.0659;1.0713;1.0743;1.0752;1.075;1.074;1.0721;1.069;1.0652;1.0609;1.0562;1.0515
0.3195;0.3183;0.3179;0.318;0.3178;0.3176;0.3174;0.317;0.3165;0.316;0.3156;0.3155;0.3158;0.3158;0.3156;0.3156;0.3157;0.3152;0.3143;0.3136;0.313;0.3126;0.3123;0.3121;0.3117;0.3113;0.3113;0.3118;0.3122;0.3122;0.3118;0.3114;0.3112;0.311;0.3113;0.3116;0.3113;0.3105;0.3101;0.3101;0.3102;0.3097;0.3093;0.3093;0.3092;0.3091;0.3094;0.3098;0.3099;0.3096;0.3093;0.3091;0.3088;0.3086;0.3089;0.3095;0.3098;0.3092;0.3088;0.309;0.3092;0.3089;0.3087;0.3087;0.3087;0.3088;0.3087;0.3085;0.3085;0.3085;0.3082;0.3082;0.3084;0.308;0.3075;0.3075;0.3077;0.3078;0.3078;0.3076;0.3071;0.3066;0.3065;0.3067;0.3066;0.3062;0.3056;0.3052;0.3053;0.3053;0.3049;0.3045;0.3042;0.3035;0.3025;0.3021;0.3024;0.3024;0.3021;0.3021;0.3018;0.3013;0.301;0.3008;0.3005;0.3;0.2995;0.299;0.2988;0.2988;0.2989;0.2986;0.2982;0.2977;0.2972;0.2967;0.2963;0.2962;0.2962;0.2961;0.2961;0.2961;0.2959;0.2958;0.2959;0.2962;0.2963;0.296;0.2958;0.2962;0.2965;0.2962;0.2959;0.2961;0.2965;0.2967;0.2969;0.2973;0.2975;0.2978;0.298;0.2981;0.2983;0.2988;0.2996;0.3003;0.3006;0.3005;0.3005;0.301;0.3019;0.3024;0.3027;0.303;0.3034;0.3039;0.3044;0.3049;0.3055;0.306;0.3066;0.3073;0.3078;0.3082;0.3083;0.3084;0.3086;0.309;0.3096;0.3103;0.3107;0.3107;0.3107;0.3109;0.3112;0.3115;0.3117;0.3118;0.3116;0.3115;0.3118;0.3121;0.3121;0.3121;0.3119;0.3118;0.3118;0.312;0.3121;0.3118;0.3115;0.3113;0.3114;0.3114;0.3113;0.3111;0.3111;0.3111;0.3108;0.3106;0.3105;0.3106;0.3104;0.3101;0.3097;0.3095;0.3093;0.3091;0.3087;0.3084;0.3082;0.3079;0.3076;0.3074;0.3072;0.3068;0.3063;0.3057;0.3054;0.3053;0.3051;0.3046;0.3042;0.3039;0.3038;0.3034;0.3029;0.3024;0.3019;0.3016;0.3013;0.3011;0.3008;0.3002;0.2998;0.2994;0.299;0.2987;0.2984;0.2981;0.2977;0.2972;0.2969;0.2967;0.2965;0.296;0.2956;0.2952;0.2947;0.2944;0.2943;0.294;0.2934;0.2929;0.2927;0.2924;0.292;0.2917;0.2913;0.2909;0.2905;0.2902;0.2899;0.2895;0.2892;0.2889;0.2885;0.288;0.2876;0.2873;0.2871;0.2867;0.2863;0.2859;0.2857;0.2853;0.2849;0.2847;0.2845;0.2842;0.2837;0.2833;0.2829;0.2827;0.2826;0.2825;0.2821;0.2817;0.2812;0.2811;0.281;0.2809;0.2806;0.2802;0.2799;0.2798;0.2797;0.2796;0.2794;0.2793;0.2792;0.2791;0.279;0.2788;0.2786;0.2785;0.2784;0.2784;0.2782;0.2781;0.2781;0.2781;0.2781;0.278;0.278;0.2779;0.2779;0.2778;0.2778;0.2779;0.278;0.2781;0.2781;0.2782;0.2784;0.2786;0.2788;0.2792;0.2797;0.2802;0.2806;0.2812;0.2818;0.2827;0.2837;0.2848;0.2861;0.2873;0.2887;0.2903;0.2922;0.2941;0.2961;0.2983;0.3005;0.3026;0.3047;0.3069;0.3091;0.3113;0.3135;0.316;0.3186;0.3211;0.3235;0.3258;0.328;0.3304;0.3328;0.3352;0.3375;0.3398;0.3421;0.3444;0.3467;0.349;0.3511;0.3531;0.355;0.3567;0.3584;0.3599;0.3615;0.363;0.3645;0.3659;0.3674;0.3691;0.3708;0.3725;0.374;0.3754;0.3769;0.3785;0.3801;0.3816;0.3831;0.3844;0.3857;0.3868;0.3879;0.3888;0.3897;0.3904;0.3911;0.3917;0.3924;0.3929;0.3932;0.3935;0.3939;0.3941;0.3941;0.3941;0.3941;0.394;0.3939;0.3935;0.3929;0.3922;0.3915;0.3907;0.3897;0.3886;0.3874;0.386;0.3845;0.383;0.3814;0.3799;0.3784;0.3769;0.3755;0.3742;0.3728;0.3715;0.3703;0.3692;0.368;0.3669;0.3659;0.365;0.3641;0.3633;0.3627;0.362;0.3613;0.3606;0.36;0.3595;0.359;0.3585;0.3582;0.3579;0.3576;0.3573;0.357;0.3568;0.3566;0.3563;0.3561;0.356;0.3559;0.3557;0.3556;0.3554;0.3553;0.3552;0.355;0.3548;0.3545;0.3543;0.3541;0.3539;0.3536;0.3532;0.3528;0.3523;0.3519;0.3515;0.3512;0.351;0.3507;0.3504;0.3502;0.35;0.3498;0.3496;0.3496;0.3496;0.3497;0.3498;0.3499;0.3501;0.3504;0.3508;0.3512;0.3517;0.3522;0.3528;0.3537;0.3546;0.3555;0.3566;0.3577;0.359;0.3603;0.3617;0.3633;0.365;0.3667;0.3685;0.3705;0.3725;0.3746;0.3768;0.3791;0.3815;0.3838;0.3862;0.3887;0.3913;0.3938;0.3963;0.3988;0.4013;0.4039;0.4064;0.4087;0.4111;0.4136;0.4159;0.418;0.42;0.4221;0.4243;0.4264;0.4284;0.4304;0.4324;0.4344;0.4364;0.4383;0.4402;0.4421;0.4439;0.4457;0.4481;0.4511;0.4545;0.4579;0.4617;0.4658;0.4699;0.474;0.4783;0.4829;0.4877;0.4926;0.4981;0.5039;0.5097;0.5159;0.5222;0.5286;0.5351;0.5414;0.5478;0.5541;0.5601;0.5659;0.5716;0.5773;0.5828;0.5881;0.593;0.5975;0.6017;0.6055;0.609;0.6123;0.6153;0.618;0.6204;0.6225;0.6244;0.6261;0.6277;0.629;0.6301;0.6311;0.632;0.6328;0.6335;0.6343;0.6349;0.6354;0.6357;0.6359;0.6362;0.6363;0.6362;0.6361;0.6359;0.6355;0.6351;0.6346;0.6341;0.6334;0.6327;0.632;0.6313;0.6305;0.6297;0.6289;0.628;0.627;0.626;0.6251;0.6242;0.6232;0.6223;0.6213;0.6204;0.6195;0.6186;0.6177;0.6168;0.6158;0.6149;0.6141;0.6133;0.6126;0.6119;0.6114;0.6109;0.6104;0.6099;0.6096;0.6092;0.6089;0.6087;0.6084;0.6081;0.6078;0.6075;0.6073;0.6071;0.6069;0.6068;0.6066;0.6064;0.6063;0.6061;0.6059;0.6057;0.6055;0.6052;0.6048;0.6043;0.6037;0.6031;0.6024;0.6015;0.6007;0.5997;0.5987;0.5975;0.5963;0.595;0.5936;0.5922;0.5907;0.5893;0.5879;0.5864;0.585;0.5836;0.5822;0.5809;0.5795;0.5782;0.5769;0.5756;0.5744;0.5731;0.572;0.5709;0.5699;0.5689;0.568;0.5672;0.5664;0.5658;0.5652;0.5648;0.5645;0.5645;0.5645;0.5647;0.5649;0.5652;0.5657;0.5664;0.5674;0.5686;0.5702;0.5721;0.5743;0.577;0.58;0.583;0.586;0.5887;0.5912;0.5935;0.5956;0.5975;0.5989;0.6001;0.6012;0.6024;0.6038;0.6054;0.6069;0.6084;0.6099;0.6115;0.6132;0.6141;0.6137;0.6124;0.6114;0.6111;0.6113;0.6118;0.6122;0.6127;0.6134;0.6141;0.6148;0.6155;0.6162;0.6166;0.6165;0.6161;0.6158;0.6156;0.6154;0.615;0.6144;0.6136;0.6126;0.6116;0.6106;0.6095;0.6083;0.6072;0.606;0.605;0.6041;0.6032;0.6025;0.6017;0.6008;0.6;0.5992;0.598;0.5969;0.5957;0.5942;0.5927;0.5916;0.5906;0.5897;0.5891;0.5891;0.5894;0.5902;0.5916;0.5935;0.5956;0.5982;0.602;0.6076;0.6148;0.6231;0.6327;0.644;0.6573;0.6729;0.6905;0.7094;0.7297;0.7508;0.7719;0.7917;0.8095;0.8254;0.8393;0.8509;0.8604;0.8674;0.8719;0.874;0.8736;0.8712;0.8672;0.8621;0.8563;0.85;0.8435;0.837;0.8306;0.8243;0.8182;0.8121;0.8061;0.8002;0.7944;0.7887;0.7831;0.7778;0.7728;0.7682;0.764;0.7604;0.7575;0.7553;0.7538;0.7532;0.7534;0.7545;0.7565;0.7593;0.763;0.7672;0.7721;0.7773;0.7827;0.7884;0.7942;0.7997;0.805;0.8099;0.8145;0.8187;0.8227;0.8263;0.8296;0.8325;0.8349;0.8371;0.839;0.8406;0.8419;0.8428;0.8434;0.8437;0.8436;0.8432;0.8423;0.841;0.8394;0.8374;0.8351;0.8325;0.8297;0.8266;0.8234;0.8201;0.8167;0.8134;0.8102;0.807;0.8038;0.8006;0.7974;0.7943;0.7913;0.7883;0.7853;0.7824;0.7797;0.7771;0.7747;0.7727;0.771;0.7699;0.7696;0.7703;0.7724;0.7761;0.7815;0.7886;0.7972;0.8068;0.8168;0.8269;0.8369;0.8468;0.8566;0.8656;0.8727;0.8769;0.8789;0.8808;0.8849;0.8917;0.9007;0.9095;0.9128;0.9096;0.9055;0.9036;0.9032;0.9033;0.904;0.9059;0.9078;0.9074;0.9049;0.9031;0.9029;0.9035;0.9043;0.9057;0.9075;0.9096;0.9122;0.9159;0.9208;0.9268;0.9335;0.941;0.9491;0.9581;0.968;0.9787;0.9898;1.0006;1.0113;1.022;1.0328;1.043;1.0524;1.0608;1.0679;1.0733;1.0766;1.0781;1.0782;1.0773;1.0757;1.0731;1.0697;1.0659;1.0619;1.0577
0.337;0.3361;0.3358;0.3359;0.336;0.3357;0.3352;0.3346;0.3342;0.3338;0.3336;0.3337;0.3338;0.3339;0.3339;0.3336;0.3326;0.3314;0.3308;0.3312;0.3317;0.3315;0.3308;0.3301;0.33;0.3303;0.3305;0.3308;0.3309;0.3307;0.33;0.3292;0.3288;0.3285;0.3285;0.3287;0.3288;0.3292;0.3298;0.3297;0.329;0.3284;0.328;0.3278;0.3279;0.3279;0.3276;0.3276;0.3277;0.3274;0.3273;0.3276;0.3278;0.3276;0.3275;0.3274;0.3274;0.3274;0.3277;0.3283;0.3285;0.3278;0.3274;0.3273;0.3274;0.3275;0.3276;0.3275;0.3276;0.3279;0.3279;0.3275;0.3269;0.3264;0.3268;0.3274;0.3273;0.3268;0.3264;0.3263;0.3261;0.3257;0.3259;0.3261;0.3255;0.3248;0.3245;0.3246;0.3247;0.3248;0.3244;0.3239;0.3231;0.3222;0.3214;0.3214;0.3218;0.3217;0.3212;0.3207;0.3202;0.32;0.3203;0.3204;0.3202;0.3197;0.3191;0.3183;0.3177;0.3178;0.3182;0.3181;0.3176;0.317;0.3166;0.3162;0.3159;0.3162;0.3165;0.3163;0.3159;0.3156;0.3154;0.3152;0.3155;0.3159;0.3162;0.3161;0.316;0.3161;0.3162;0.3161;0.3162;0.3165;0.317;0.3174;0.3177;0.3179;0.318;0.3178;0.3178;0.3181;0.3187;0.3192;0.3195;0.3199;0.3205;0.3209;0.3214;0.3218;0.3224;0.3231;0.3237;0.3243;0.3247;0.3252;0.3259;0.3264;0.3268;0.3272;0.3279;0.3288;0.3294;0.3298;0.3301;0.3304;0.3308;0.3313;0.3321;0.3327;0.3328;0.3327;0.3327;0.333;0.3334;0.3337;0.3337;0.3338;0.3339;0.3339;0.3339;0.3338;0.334;0.3344;0.3344;0.3341;0.3339;0.3338;0.3337;0.3334;0.3333;0.3333;0.3333;0.3332;0.3332;0.3332;0.3331;0.3328;0.3327;0.3329;0.333;0.3329;0.3322;0.3316;0.3314;0.3316;0.3318;0.3315;0.3308;0.3302;0.3299;0.3298;0.3298;0.3298;0.3296;0.3291;0.3284;0.3278;0.3274;0.3274;0.3273;0.3269;0.3263;0.326;0.3258;0.3255;0.3249;0.3244;0.324;0.3235;0.3232;0.323;0.3227;0.3222;0.3217;0.3212;0.3208;0.3204;0.32;0.32;0.3199;0.3194;0.319;0.3187;0.3183;0.3178;0.3173;0.3169;0.3167;0.3164;0.3161;0.3157;0.3153;0.315;0.3146;0.3141;0.3138;0.3136;0.3132;0.3126;0.3121;0.3117;0.3113;0.311;0.3109;0.3107;0.3104;0.3099;0.3093;0.3089;0.3086;0.3082;0.3079;0.3076;0.3073;0.3068;0.3064;0.306;0.3058;0.3056;0.3052;0.3048;0.3046;0.3045;0.3043;0.3038;0.3034;0.3031;0.3029;0.3027;0.3025;0.3021;0.3018;0.3016;0.3014;0.3013;0.3013;0.3011;0.301;0.3008;0.3007;0.3006;0.3005;0.3004;0.3003;0.3001;0.2999;0.2999;0.2997;0.2997;0.2997;0.2998;0.2997;0.2997;0.2996;0.2995;0.2994;0.2994;0.2995;0.2997;0.3;0.3;0.3;0.3001;0.3003;0.3005;0.3008;0.3011;0.3014;0.3019;0.3025;0.3031;0.3038;0.3048;0.3058;0.3069;0.3081;0.3096;0.3113;0.313;0.3148;0.3167;0.3187;0.3209;0.3233;0.3256;0.3279;0.3302;0.3325;0.3348;0.3373;0.3399;0.3424;0.3448;0.3474;0.3499;0.3523;0.3547;0.3572;0.3596;0.362;0.3645;0.3667;0.369;0.3714;0.3736;0.3757;0.3777;0.3797;0.3816;0.3833;0.385;0.3866;0.3881;0.3895;0.391;0.3926;0.3943;0.396;0.3976;0.3992;0.4007;0.4022;0.4036;0.4051;0.4067;0.4082;0.4096;0.4109;0.4121;0.4132;0.4142;0.415;0.4159;0.4167;0.4176;0.4181;0.4185;0.4189;0.4193;0.4195;0.4195;0.4194;0.4194;0.4193;0.4192;0.4191;0.4187;0.4182;0.4174;0.4166;0.4157;0.4146;0.4134;0.4122;0.411;0.4097;0.4083;0.4068;0.4051;0.4035;0.402;0.4007;0.3994;0.3981;0.3968;0.3955;0.3943;0.3933;0.3923;0.3914;0.3905;0.3895;0.3886;0.3878;0.3871;0.3864;0.3857;0.3851;0.3846;0.3841;0.3837;0.3834;0.383;0.3826;0.3823;0.382;0.3818;0.3817;0.3815;0.3813;0.3811;0.381;0.3809;0.3807;0.3806;0.3805;0.3803;0.3801;0.3799;0.3796;0.3794;0.3792;0.379;0.3787;0.3784;0.378;0.3776;0.3771;0.3767;0.3764;0.3761;0.3758;0.3756;0.3754;0.3753;0.3751;0.3749;0.3748;0.3749;0.375;0.3751;0.3752;0.3755;0.3758;0.3762;0.3766;0.3772;0.3778;0.3784;0.3792;0.3801;0.3812;0.3822;0.3833;0.3846;0.386;0.3875;0.3891;0.3909;0.3927;0.3946;0.3965;0.3986;0.4009;0.4031;0.4055;0.4078;0.4103;0.4128;0.4153;0.4178;0.4203;0.4229;0.4254;0.428;0.4305;0.433;0.4354;0.4379;0.4403;0.4427;0.4447;0.4467;0.4488;0.4508;0.4529;0.4549;0.4569;0.459;0.4611;0.4631;0.465;0.4669;0.4687;0.4704;0.4724;0.4748;0.4778;0.4811;0.4846;0.4885;0.4926;0.4967;0.5007;0.5049;0.5094;0.5142;0.5191;0.5246;0.5303;0.536;0.542;0.5481;0.5543;0.5607;0.5669;0.5729;0.5789;0.5847;0.5903;0.5959;0.6013;0.6065;0.6114;0.6159;0.6203;0.6243;0.628;0.6313;0.6345;0.6374;0.6399;0.6422;0.6442;0.6459;0.6475;0.649;0.6503;0.6513;0.6523;0.6532;0.654;0.6546;0.6553;0.6559;0.6564;0.6567;0.6569;0.657;0.657;0.657;0.6569;0.6567;0.6564;0.6559;0.6555;0.6549;0.6543;0.6536;0.6529;0.6523;0.6515;0.6505;0.6497;0.6489;0.6481;0.6473;0.6464;0.6455;0.6446;0.6436;0.6427;0.6418;0.641;0.6401;0.6392;0.6384;0.6375;0.6367;0.6359;0.6352;0.6345;0.6339;0.6334;0.6329;0.6324;0.632;0.6317;0.6313;0.631;0.6307;0.6305;0.6302;0.6301;0.6299;0.6297;0.6295;0.6294;0.6292;0.629;0.6289;0.6287;0.6285;0.6283;0.6281;0.6279;0.6276;0.6272;0.6268;0.6263;0.6258;0.625;0.6243;0.6234;0.6225;0.6215;0.6203;0.6192;0.6179;0.6166;0.6152;0.6138;0.6125;0.6111;0.6097;0.6083;0.607;0.6057;0.6044;0.6031;0.6018;0.6005;0.5992;0.5981;0.597;0.5959;0.5949;0.5938;0.5928;0.5919;0.5911;0.5904;0.5897;0.5891;0.5887;0.5884;0.5883;0.5883;0.5884;0.5886;0.5889;0.5893;0.5899;0.5908;0.5919;0.5934;0.5952;0.5973;0.5998;0.6027;0.6055;0.6084;0.611;0.6134;0.6155;0.6175;0.6191;0.6204;0.6214;0.6224;0.6235;0.6248;0.6262;0.6276;0.629;0.6304;0.6321;0.6338;0.6348;0.6345;0.6334;0.6326;0.6325;0.6328;0.6333;0.6338;0.6343;0.6349;0.6355;0.6362;0.637;0.6378;0.6382;0.6381;0.6378;0.6376;0.6375;0.6374;0.6371;0.6365;0.6358;0.6349;0.634;0.633;0.6319;0.6308;0.6296;0.6286;0.6276;0.6267;0.6258;0.6251;0.6244;0.6237;0.6229;0.6221;0.6211;0.6199;0.6187;0.6173;0.6159;0.6148;0.6139;0.613;0.6124;0.6124;0.6128;0.6135;0.6149;0.6168;0.619;0.6215;0.6253;0.6307;0.6377;0.6458;0.655;0.6658;0.6786;0.6934;0.7102;0.7282;0.7475;0.7677;0.7877;0.8066;0.8236;0.8388;0.8521;0.8632;0.8724;0.8791;0.8835;0.8855;0.8851;0.8827;0.8788;0.8739;0.8682;0.8621;0.8558;0.8495;0.8433;0.8372;0.8312;0.8253;0.8196;0.8139;0.8082;0.8027;0.7974;0.7924;0.7876;0.7832;0.7793;0.7759;0.7732;0.7711;0.7698;0.7693;0.7695;0.7705;0.7724;0.7751;0.7785;0.7826;0.7872;0.7921;0.7973;0.8026;0.808;0.8134;0.8185;0.8233;0.8277;0.8319;0.8357;0.8394;0.8427;0.8456;0.8481;0.8503;0.8521;0.8537;0.855;0.8559;0.8566;0.8568;0.8568;0.8563;0.8556;0.8544;0.8528;0.8509;0.8486;0.846;0.8433;0.8402;0.837;0.8337;0.8304;0.8272;0.824;0.8208;0.8177;0.8146;0.8116;0.8086;0.8057;0.8028;0.7999;0.7972;0.7946;0.7921;0.7899;0.7879;0.7863;0.7853;0.785;0.7857;0.7877;0.7912;0.7963;0.8031;0.8113;0.8204;0.8298;0.8394;0.849;0.8586;0.868;0.8769;0.8838;0.8879;0.8896;0.8914;0.8952;0.9017;0.9105;0.9193;0.9226;0.9196;0.9157;0.9138;0.9133;0.9133;0.9139;0.9157;0.9177;0.9174;0.915;0.9133;0.9132;0.9137;0.9146;0.916;0.9178;0.9199;0.9225;0.9261;0.9311;0.937;0.9436;0.9509;0.9589;0.9677;0.9773;0.9878;0.9985;1.0091;1.0194;1.0299;1.0404;1.0504;1.0597;1.068;1.0749;1.0802;1.0834;1.0849;1.0851;1.0845;1.083;1.0806;1.0773;1.0734;1.0692;1.0651
0.332;0.3311;0.3301;0.3299;0.3299;0.3298;0.3295;0.3289;0.3281;0.3272;0.3269;0.3275;0.3278;0.3274;0.3267;0.3263;0.3259;0.3252;0.3247;0.3251;0.3258;0.3259;0.3253;0.3246;0.3242;0.3241;0.3239;0.3242;0.3244;0.324;0.3231;0.3223;0.3219;0.3217;0.3215;0.321;0.3206;0.3208;0.3213;0.3216;0.3213;0.3209;0.3206;0.32;0.3196;0.3198;0.3201;0.3199;0.3196;0.3194;0.3192;0.3192;0.3194;0.3197;0.3198;0.32;0.3201;0.32;0.3197;0.3197;0.3197;0.3195;0.3192;0.3188;0.3184;0.3182;0.3183;0.3185;0.3188;0.3191;0.3193;0.3192;0.3188;0.3183;0.3178;0.3174;0.3172;0.3171;0.3171;0.3169;0.3163;0.3159;0.3158;0.3157;0.3152;0.3147;0.3146;0.3149;0.3148;0.3144;0.3141;0.314;0.3138;0.3133;0.3128;0.3123;0.3121;0.3119;0.3116;0.3113;0.3109;0.3105;0.3101;0.3098;0.3095;0.3095;0.3092;0.3088;0.3085;0.3086;0.3084;0.3078;0.3072;0.3069;0.3068;0.3067;0.3063;0.3059;0.3054;0.3052;0.3052;0.3053;0.3052;0.3048;0.3049;0.3055;0.3058;0.3055;0.3053;0.3054;0.3055;0.3054;0.3054;0.3056;0.3059;0.3062;0.3065;0.3068;0.3069;0.307;0.3072;0.3076;0.3079;0.3079;0.308;0.3084;0.3089;0.3093;0.3096;0.3099;0.3105;0.3112;0.3119;0.3126;0.313;0.3132;0.3135;0.3139;0.3145;0.3151;0.3158;0.3163;0.3165;0.3167;0.3173;0.318;0.3184;0.3187;0.3192;0.3196;0.3197;0.3196;0.3198;0.3203;0.3204;0.3204;0.3205;0.3207;0.3206;0.3205;0.3206;0.3209;0.3212;0.3213;0.321;0.3206;0.3206;0.3208;0.3206;0.3202;0.3201;0.32;0.32;0.32;0.32;0.32;0.3198;0.3194;0.3191;0.3191;0.3194;0.3193;0.3188;0.3182;0.3179;0.3179;0.3178;0.3174;0.3168;0.3165;0.3164;0.3164;0.3162;0.3158;0.3153;0.3149;0.3145;0.314;0.3136;0.3134;0.3135;0.3133;0.313;0.3126;0.3121;0.3116;0.3111;0.3107;0.3104;0.3101;0.3097;0.3094;0.3091;0.3086;0.3081;0.3076;0.3072;0.3068;0.3065;0.3062;0.306;0.3057;0.3054;0.3051;0.3046;0.3041;0.3034;0.3029;0.3026;0.3025;0.3023;0.302;0.3015;0.3011;0.3007;0.3003;0.2999;0.2996;0.2993;0.2987;0.2983;0.2979;0.2977;0.2974;0.2971;0.2969;0.2966;0.2961;0.2955;0.2951;0.2948;0.2945;0.294;0.2936;0.2934;0.293;0.2925;0.2921;0.292;0.2918;0.2914;0.291;0.2906;0.2904;0.2902;0.2899;0.2896;0.2893;0.289;0.2887;0.2884;0.2883;0.2881;0.2879;0.2877;0.2875;0.2875;0.2874;0.2872;0.287;0.2868;0.2864;0.2861;0.286;0.286;0.286;0.2859;0.2857;0.2856;0.2856;0.2854;0.2854;0.2855;0.2855;0.2854;0.2853;0.2852;0.2852;0.2852;0.2853;0.2854;0.2854;0.2854;0.2855;0.2857;0.286;0.2863;0.2867;0.287;0.2874;0.2879;0.2885;0.2892;0.29;0.2911;0.2922;0.2935;0.2949;0.2965;0.2981;0.2999;0.3018;0.3038;0.3059;0.308;0.31;0.3122;0.3145;0.3168;0.3189;0.3213;0.3239;0.3263;0.3286;0.331;0.3335;0.336;0.3383;0.3406;0.3429;0.3453;0.3478;0.3502;0.3525;0.3547;0.3568;0.3588;0.3609;0.3629;0.3647;0.3663;0.368;0.3697;0.3713;0.3728;0.3743;0.3759;0.3774;0.3791;0.3808;0.3822;0.3835;0.385;0.3867;0.3884;0.3899;0.3913;0.3926;0.394;0.3953;0.3963;0.3971;0.398;0.399;0.3999;0.4007;0.4013;0.4016;0.4019;0.4023;0.4026;0.4027;0.4027;0.4026;0.4025;0.4022;0.402;0.4017;0.4013;0.4007;0.3998;0.3989;0.398;0.3969;0.3955;0.3941;0.3927;0.3912;0.3896;0.3881;0.3867;0.3854;0.384;0.3827;0.3814;0.3801;0.3789;0.3776;0.3764;0.3754;0.3744;0.3735;0.3727;0.3718;0.371;0.3703;0.3696;0.369;0.3684;0.3678;0.3674;0.3669;0.3665;0.3662;0.366;0.3657;0.3655;0.3652;0.365;0.3647;0.3645;0.3643;0.3642;0.3642;0.3641;0.364;0.3638;0.3636;0.3634;0.3633;0.3631;0.363;0.3627;0.3623;0.3619;0.3616;0.3612;0.3608;0.3604;0.36;0.3597;0.3595;0.3592;0.3589;0.3587;0.3584;0.3583;0.3581;0.3581;0.3581;0.3581;0.3582;0.3583;0.3586;0.3589;0.3592;0.3597;0.3602;0.3607;0.3614;0.3621;0.3631;0.3641;0.3651;0.3663;0.3675;0.3689;0.3704;0.3721;0.3738;0.3755;0.3773;0.3793;0.3814;0.3837;0.3859;0.3882;0.3906;0.393;0.3955;0.398;0.4005;0.4031;0.4057;0.4083;0.4108;0.4133;0.4159;0.4184;0.4208;0.4232;0.4256;0.4278;0.4299;0.432;0.4341;0.4361;0.438;0.44;0.442;0.4441;0.4462;0.4482;0.4501;0.452;0.4538;0.4558;0.4582;0.4612;0.4645;0.4681;0.472;0.4761;0.4803;0.4846;0.489;0.4937;0.4986;0.5036;0.5092;0.5151;0.5212;0.5274;0.5337;0.5403;0.5469;0.5534;0.5597;0.566;0.5721;0.5781;0.584;0.5897;0.5952;0.6004;0.6052;0.6097;0.6139;0.6178;0.6215;0.6249;0.6279;0.6305;0.6328;0.6349;0.6368;0.6385;0.6399;0.6412;0.6423;0.6434;0.6444;0.6453;0.6461;0.6468;0.6474;0.6479;0.6482;0.6485;0.6487;0.6489;0.6488;0.6485;0.6483;0.648;0.6477;0.6472;0.6465;0.6459;0.6452;0.6445;0.6438;0.6429;0.642;0.6411;0.6402;0.6393;0.6384;0.6374;0.6365;0.6356;0.6346;0.6337;0.6328;0.6318;0.6308;0.6299;0.629;0.628;0.6271;0.6263;0.6256;0.6249;0.6242;0.6236;0.6231;0.6226;0.6222;0.6218;0.6215;0.6213;0.6211;0.6208;0.6205;0.6203;0.62;0.6198;0.6196;0.6194;0.6193;0.6191;0.619;0.619;0.6188;0.6186;0.6184;0.6181;0.6178;0.6174;0.6169;0.6163;0.6156;0.6149;0.6141;0.6133;0.6123;0.6112;0.61;0.6088;0.6074;0.606;0.6046;0.6032;0.6017;0.6002;0.5988;0.5973;0.5959;0.5945;0.5931;0.5917;0.5903;0.589;0.5877;0.5864;0.5852;0.5841;0.5829;0.5819;0.5808;0.5799;0.579;0.5782;0.5775;0.5769;0.5764;0.5761;0.5759;0.5759;0.576;0.5763;0.5766;0.577;0.5777;0.5785;0.5797;0.5812;0.5831;0.5854;0.5881;0.591;0.5941;0.5971;0.5999;0.6024;0.6047;0.6068;0.6086;0.61;0.6111;0.6121;0.6132;0.6146;0.6161;0.6175;0.619;0.6205;0.6222;0.624;0.625;0.6247;0.6236;0.6227;0.6225;0.6229;0.6234;0.6239;0.6244;0.625;0.6257;0.6264;0.6271;0.6279;0.6284;0.6283;0.628;0.6278;0.6277;0.6275;0.6271;0.6265;0.6257;0.6248;0.6238;0.6227;0.6215;0.6203;0.6191;0.6179;0.6169;0.6159;0.6151;0.6143;0.6135;0.6127;0.6119;0.611;0.6099;0.6087;0.6074;0.606;0.6044;0.6032;0.6023;0.6014;0.6007;0.6007;0.601;0.6018;0.6032;0.6052;0.6074;0.6102;0.6141;0.6198;0.6271;0.6355;0.6453;0.6568;0.6703;0.6861;0.7039;0.7229;0.7432;0.7645;0.7855;0.8054;0.8231;0.839;0.8528;0.8644;0.8739;0.8808;0.8851;0.8872;0.8869;0.8844;0.8804;0.8754;0.8695;0.8633;0.8568;0.8503;0.8438;0.8375;0.8313;0.8253;0.8193;0.8133;0.8075;0.8018;0.7963;0.791;0.786;0.7814;0.7772;0.7736;0.7707;0.7685;0.7671;0.7665;0.7667;0.7679;0.7699;0.7728;0.7764;0.7807;0.7855;0.7907;0.7962;0.8019;0.8076;0.8131;0.8184;0.8234;0.828;0.8324;0.8364;0.8401;0.8434;0.8464;0.8489;0.8511;0.8531;0.8548;0.8561;0.8571;0.8577;0.858;0.858;0.8576;0.8567;0.8555;0.8539;0.8519;0.8496;0.847;0.8441;0.841;0.8376;0.8342;0.8309;0.8276;0.8243;0.821;0.8177;0.8144;0.8113;0.8082;0.8051;0.8021;0.7991;0.7961;0.7934;0.7907;0.7884;0.7863;0.7846;0.7834;0.7831;0.7838;0.7859;0.7896;0.7951;0.8023;0.8109;0.8205;0.8305;0.8407;0.8507;0.8607;0.8706;0.8798;0.8871;0.8913;0.8932;0.895;0.899;0.9057;0.9148;0.9237;0.9271;0.9239;0.9198;0.9179;0.9175;0.9175;0.9181;0.92;0.9219;0.9215;0.9191;0.9173;0.9172;0.9178;0.9187;0.9202;0.922;0.924;0.9266;0.9303;0.9353;0.9414;0.9482;0.9557;0.9639;0.9729;0.9829;0.9937;1.0049;1.0157;1.0262;1.0368;1.0476;1.058;1.0674;1.0759;1.083;1.0883;1.0916;1.0932;1.0934;1.0927;1.091;1.0883;1.085;1.0811;1.077;1.0729
0.3204;0.32;0.3195;0.3192;0.3192;0.3192;0.3192;0.3188;0.318;0.3176;0.3175;0.3173;0.3174;0.3174;0.3173;0.3171;0.3166;0.3159;0.3155;0.3157;0.3159;0.3156;0.3146;0.3139;0.3134;0.313;0.313;0.3134;0.3139;0.3141;0.3143;0.3141;0.3135;0.3129;0.3123;0.312;0.3122;0.3128;0.3133;0.3132;0.3126;0.3119;0.3115;0.3116;0.3118;0.312;0.3119;0.3116;0.3114;0.3114;0.3115;0.3115;0.3113;0.3112;0.3112;0.3114;0.3116;0.3117;0.3118;0.3121;0.3123;0.3123;0.3123;0.3122;0.3118;0.3117;0.3118;0.3117;0.3115;0.3114;0.3114;0.3114;0.3115;0.3114;0.3116;0.3117;0.3114;0.3111;0.311;0.3108;0.3102;0.3097;0.3097;0.3096;0.3093;0.309;0.3088;0.3089;0.3091;0.3089;0.3081;0.3077;0.3078;0.3077;0.3071;0.3064;0.3061;0.306;0.3057;0.3056;0.3054;0.305;0.3046;0.3042;0.304;0.3039;0.3038;0.3035;0.3032;0.3029;0.3025;0.302;0.3016;0.3012;0.301;0.3011;0.3012;0.301;0.301;0.3009;0.3005;0.3001;0.2998;0.2999;0.3002;0.3006;0.3008;0.3006;0.3004;0.3006;0.301;0.3012;0.3013;0.3015;0.3019;0.3022;0.3024;0.3027;0.3032;0.3034;0.3034;0.3036;0.3041;0.3047;0.3051;0.3058;0.3065;0.3069;0.3071;0.3077;0.3085;0.3091;0.3095;0.3101;0.3107;0.311;0.3113;0.3119;0.3126;0.3133;0.3141;0.3147;0.315;0.3153;0.3155;0.3158;0.316;0.3164;0.317;0.3176;0.3179;0.3179;0.318;0.3182;0.3186;0.3192;0.3198;0.3199;0.3197;0.3196;0.3197;0.3199;0.32;0.3201;0.3199;0.3196;0.3196;0.3199;0.3199;0.3197;0.3194;0.3192;0.3192;0.3193;0.3193;0.3192;0.3191;0.3189;0.3188;0.3187;0.3187;0.3187;0.3184;0.3179;0.3174;0.3173;0.3171;0.3169;0.3166;0.3163;0.3159;0.3156;0.3154;0.3155;0.3154;0.315;0.3145;0.314;0.3135;0.3133;0.3131;0.3128;0.3125;0.3122;0.3117;0.3112;0.3106;0.3102;0.3099;0.3096;0.3096;0.3096;0.3092;0.3086;0.3081;0.3076;0.3071;0.3067;0.3064;0.3062;0.3058;0.3055;0.3052;0.3048;0.3043;0.3039;0.3036;0.3033;0.303;0.3027;0.3023;0.302;0.3017;0.3013;0.3008;0.3005;0.3004;0.3002;0.2998;0.2992;0.2986;0.2983;0.2981;0.2978;0.2973;0.2969;0.2966;0.2962;0.2958;0.2954;0.2952;0.2949;0.2945;0.2942;0.2937;0.2931;0.2926;0.2923;0.2922;0.2921;0.2918;0.2915;0.2911;0.2908;0.2906;0.2903;0.29;0.2898;0.2895;0.2891;0.2889;0.2888;0.2886;0.2883;0.2881;0.288;0.2879;0.2878;0.2876;0.2874;0.2872;0.2871;0.287;0.2869;0.2868;0.2867;0.2867;0.2865;0.2865;0.2864;0.2863;0.2864;0.2865;0.2864;0.2862;0.2861;0.2862;0.2863;0.2863;0.2863;0.2864;0.2864;0.2865;0.2867;0.287;0.2872;0.2875;0.2878;0.2882;0.2887;0.2893;0.2898;0.2904;0.2913;0.2923;0.2934;0.2947;0.2961;0.2977;0.2995;0.3016;0.3037;0.3058;0.3079;0.3101;0.3123;0.3146;0.3169;0.3192;0.3215;0.324;0.3267;0.3293;0.3318;0.3342;0.3365;0.3389;0.3414;0.3439;0.3464;0.3489;0.3512;0.3535;0.3559;0.3582;0.3603;0.3624;0.3645;0.3665;0.3684;0.3701;0.3718;0.3734;0.375;0.3766;0.3781;0.3796;0.3812;0.383;0.3848;0.3863;0.3876;0.3891;0.3908;0.3925;0.394;0.3953;0.3966;0.3981;0.3996;0.4008;0.4017;0.4026;0.4034;0.4042;0.4049;0.4054;0.4058;0.4061;0.4064;0.4066;0.4068;0.4071;0.4072;0.4071;0.4069;0.4066;0.4061;0.4055;0.4048;0.404;0.4032;0.4023;0.4011;0.3998;0.3985;0.3971;0.3956;0.394;0.3924;0.391;0.3897;0.3884;0.387;0.3856;0.3844;0.3832;0.3821;0.381;0.3798;0.3787;0.3778;0.377;0.3762;0.3753;0.3746;0.3739;0.3734;0.3728;0.3722;0.3717;0.3714;0.3711;0.3708;0.3704;0.3702;0.37;0.3698;0.3696;0.3694;0.3691;0.3689;0.3688;0.3688;0.3686;0.3684;0.3683;0.3682;0.3679;0.3677;0.3675;0.3674;0.3672;0.3669;0.3666;0.3662;0.3657;0.3653;0.365;0.3647;0.3644;0.3641;0.3638;0.3635;0.3633;0.363;0.3628;0.3627;0.3627;0.3628;0.3629;0.363;0.3632;0.3635;0.3638;0.3641;0.3645;0.365;0.3655;0.3663;0.3672;0.3681;0.3691;0.3702;0.3714;0.3727;0.3741;0.3756;0.3772;0.379;0.3809;0.3827;0.3847;0.3868;0.3891;0.3915;0.3938;0.3962;0.3986;0.4011;0.4037;0.4063;0.409;0.4115;0.4141;0.4166;0.4191;0.4216;0.4239;0.4264;0.4289;0.4313;0.4334;0.4355;0.4376;0.4397;0.4417;0.4438;0.4458;0.4478;0.4499;0.4519;0.4539;0.4558;0.4577;0.4595;0.4615;0.4638;0.4667;0.47;0.4735;0.4774;0.4814;0.4856;0.4898;0.4941;0.4987;0.5035;0.5085;0.5139;0.5197;0.5254;0.5314;0.5375;0.5437;0.55;0.5561;0.5622;0.5682;0.574;0.5796;0.5852;0.5907;0.5958;0.6007;0.6052;0.6095;0.6134;0.6171;0.6206;0.6238;0.6265;0.6289;0.6311;0.6332;0.635;0.6366;0.6379;0.6391;0.6402;0.6413;0.6422;0.643;0.6438;0.6445;0.645;0.6455;0.6458;0.6461;0.6463;0.6464;0.6464;0.6463;0.6461;0.6458;0.6453;0.6447;0.6442;0.6437;0.6431;0.6425;0.6418;0.641;0.6402;0.6393;0.6385;0.6377;0.6368;0.6359;0.635;0.6341;0.6333;0.6324;0.6316;0.6307;0.6299;0.629;0.6282;0.6273;0.6265;0.6257;0.625;0.6244;0.6238;0.6233;0.6228;0.6224;0.6221;0.6218;0.6215;0.6212;0.621;0.6208;0.6205;0.6203;0.6201;0.6199;0.6198;0.6196;0.6195;0.6194;0.6193;0.6193;0.6191;0.619;0.6188;0.6185;0.6183;0.6179;0.6175;0.6169;0.6163;0.6157;0.615;0.6142;0.6132;0.6122;0.6111;0.6099;0.6086;0.6073;0.606;0.6046;0.6032;0.6019;0.6006;0.5992;0.5979;0.5965;0.5952;0.5939;0.5926;0.5913;0.5901;0.5889;0.5878;0.5867;0.5856;0.5846;0.5837;0.5828;0.5819;0.5812;0.5805;0.58;0.5795;0.5791;0.5789;0.5789;0.579;0.5792;0.5795;0.5798;0.5804;0.5813;0.5824;0.5839;0.5856;0.5877;0.5902;0.5931;0.596;0.5988;0.6014;0.6038;0.6059;0.6078;0.6093;0.6106;0.6116;0.6125;0.6136;0.6149;0.6162;0.6176;0.619;0.6205;0.6222;0.6239;0.625;0.6248;0.6238;0.6231;0.623;0.6233;0.6238;0.6244;0.625;0.6256;0.6263;0.6269;0.6277;0.6285;0.629;0.6291;0.6289;0.6287;0.6287;0.6286;0.6283;0.6278;0.627;0.6262;0.6252;0.6242;0.6231;0.622;0.6209;0.6198;0.6188;0.6179;0.6171;0.6164;0.6157;0.6149;0.6142;0.6134;0.6124;0.6112;0.61;0.6086;0.6072;0.6062;0.6053;0.6044;0.6038;0.6038;0.6042;0.6049;0.6063;0.6082;0.6104;0.613;0.6168;0.6223;0.6293;0.6374;0.6466;0.6574;0.6701;0.6848;0.7015;0.7193;0.7384;0.7583;0.7781;0.7969;0.8137;0.8288;0.842;0.853;0.8621;0.8688;0.8731;0.8751;0.8748;0.8725;0.8687;0.8637;0.8581;0.8521;0.8459;0.8397;0.8335;0.8275;0.8216;0.8157;0.81;0.8043;0.7988;0.7935;0.7883;0.7833;0.7786;0.7743;0.7704;0.7671;0.7644;0.7623;0.761;0.7605;0.7608;0.7619;0.7638;0.7666;0.7701;0.7742;0.7787;0.7836;0.7888;0.7941;0.7995;0.8048;0.8099;0.8147;0.8192;0.8235;0.8274;0.8311;0.8345;0.8374;0.8399;0.8421;0.844;0.8456;0.847;0.848;0.8486;0.8489;0.8488;0.8484;0.8477;0.8465;0.845;0.8431;0.8408;0.8382;0.8355;0.8324;0.8292;0.8259;0.8227;0.8195;0.8163;0.8131;0.81;0.8069;0.804;0.8011;0.7981;0.7952;0.7924;0.7897;0.7871;0.7846;0.7824;0.7806;0.7792;0.7782;0.7779;0.7787;0.7807;0.7842;0.7893;0.7961;0.8042;0.8132;0.8226;0.8322;0.8417;0.8513;0.8607;0.8695;0.8765;0.8805;0.8822;0.8838;0.8874;0.8938;0.9026;0.9113;0.9148;0.9119;0.908;0.9063;0.9058;0.9058;0.9063;0.908;0.9099;0.9096;0.9074;0.9058;0.9058;0.9064;0.9073;0.9087;0.9105;0.9126;0.9152;0.9189;0.9238;0.9297;0.9363;0.9435;0.9515;0.9603;0.97;0.9805;0.9913;1.0018;1.0122;1.0226;1.0331;1.0432;1.0524;1.0607;1.0677;1.0731;1.0765;1.078;1.0782;1.0774;1.0757;1.073;1.0699;1.0665;1.0629;1.059
0.2719;0.2718;0.2711;0.2704;0.2704;0.2708;0.2713;0.2717;0.2718;0.2715;0.2713;0.2712;0.2711;0.2706;0.2701;0.27;0.2702;0.2706;0.2707;0.2704;0.2699;0.2698;0.2698;0.2698;0.2703;0.2709;0.2706;0.2698;0.2698;0.2703;0.2709;0.2713;0.2716;0.2716;0.2714;0.2712;0.2709;0.2709;0.2714;0.2719;0.272;0.2718;0.2718;0.2722;0.2729;0.2736;0.2741;0.2739;0.2734;0.2737;0.2739;0.2741;0.2747;0.2753;0.2752;0.2748;0.2747;0.2748;0.2753;0.2759;0.2764;0.2767;0.2766;0.2762;0.2761;0.2766;0.2773;0.2777;0.2778;0.2781;0.2785;0.2786;0.2787;0.279;0.2791;0.2789;0.279;0.2791;0.2788;0.2786;0.2787;0.2789;0.279;0.2792;0.2793;0.2791;0.279;0.279;0.2789;0.2787;0.2785;0.2785;0.2785;0.2784;0.2781;0.2779;0.2778;0.2777;0.2773;0.2768;0.2765;0.2768;0.2772;0.2771;0.2765;0.2761;0.2762;0.2761;0.2757;0.2754;0.2751;0.2748;0.2748;0.275;0.2752;0.2755;0.2756;0.2755;0.2752;0.275;0.275;0.2752;0.2756;0.2759;0.2758;0.2757;0.2758;0.2761;0.2765;0.2769;0.2772;0.2776;0.2781;0.2787;0.2794;0.2801;0.2807;0.2812;0.2819;0.2825;0.2829;0.2835;0.2845;0.2856;0.2864;0.2872;0.2878;0.2884;0.2891;0.2897;0.2905;0.2913;0.2921;0.2929;0.2937;0.2947;0.2958;0.2968;0.2973;0.2979;0.2986;0.2993;0.2999;0.3006;0.3013;0.3021;0.3029;0.3035;0.3041;0.3047;0.3054;0.306;0.3065;0.3069;0.3071;0.3075;0.3077;0.3079;0.3079;0.3079;0.3083;0.3089;0.3092;0.3094;0.3096;0.3098;0.3099;0.3096;0.3094;0.3095;0.3095;0.3095;0.3096;0.3097;0.3096;0.3093;0.3092;0.3091;0.3092;0.3093;0.3095;0.3094;0.3092;0.3088;0.3086;0.3084;0.3084;0.3084;0.3082;0.3079;0.3077;0.3075;0.3072;0.3068;0.3064;0.3061;0.3059;0.3056;0.3054;0.3052;0.305;0.3045;0.304;0.3038;0.3037;0.3035;0.3032;0.3028;0.3024;0.302;0.3016;0.3011;0.3006;0.3001;0.2998;0.2994;0.2991;0.2989;0.2989;0.2988;0.2986;0.2981;0.2977;0.2974;0.2969;0.2965;0.2962;0.2959;0.2955;0.2953;0.295;0.2946;0.2943;0.2941;0.2939;0.2935;0.293;0.2925;0.2923;0.2923;0.2921;0.2916;0.2911;0.2906;0.2902;0.2899;0.2896;0.2892;0.2888;0.2886;0.2884;0.2881;0.2877;0.2873;0.287;0.287;0.2869;0.2867;0.2863;0.2859;0.2856;0.2854;0.2852;0.2851;0.2849;0.2847;0.2845;0.2842;0.2839;0.2837;0.2835;0.2834;0.2833;0.2832;0.283;0.2828;0.2826;0.2824;0.2823;0.2822;0.2821;0.2821;0.282;0.2819;0.2819;0.2818;0.2819;0.2821;0.2821;0.282;0.282;0.2821;0.2822;0.2823;0.2824;0.2824;0.2822;0.2822;0.2824;0.2825;0.2827;0.2831;0.2833;0.2834;0.2834;0.2837;0.284;0.2844;0.285;0.2856;0.2864;0.2872;0.288;0.2889;0.29;0.2913;0.2928;0.2943;0.296;0.2979;0.3;0.3022;0.3046;0.3069;0.3094;0.3118;0.3143;0.317;0.3196;0.3222;0.3249;0.3276;0.3305;0.3335;0.3366;0.3395;0.3424;0.3451;0.3478;0.3506;0.3532;0.3559;0.3584;0.3608;0.3633;0.3658;0.3681;0.3703;0.3725;0.3746;0.3765;0.3783;0.38;0.3818;0.3833;0.3847;0.3861;0.3877;0.3895;0.3913;0.393;0.3947;0.3963;0.3978;0.3996;0.4012;0.4028;0.4043;0.4059;0.4074;0.4086;0.4097;0.4107;0.4115;0.4123;0.4132;0.414;0.4148;0.4154;0.4159;0.4163;0.4166;0.4167;0.4168;0.4169;0.4171;0.4172;0.4169;0.4165;0.4159;0.4152;0.4144;0.4135;0.4124;0.4111;0.4096;0.408;0.4064;0.4048;0.4032;0.4016;0.3999;0.3983;0.3968;0.3954;0.394;0.3926;0.3914;0.3902;0.3891;0.3879;0.3868;0.3858;0.385;0.3843;0.3836;0.3828;0.3821;0.3814;0.3809;0.3805;0.3801;0.3797;0.3794;0.379;0.3786;0.3782;0.378;0.3778;0.3776;0.3775;0.3774;0.3772;0.3771;0.377;0.3769;0.3767;0.3765;0.3763;0.376;0.3758;0.3755;0.3752;0.3749;0.3746;0.3743;0.3738;0.3734;0.3731;0.3728;0.3725;0.3722;0.3718;0.3716;0.3714;0.3713;0.3711;0.3711;0.3712;0.3712;0.3713;0.3715;0.3717;0.3719;0.3723;0.3728;0.3733;0.3738;0.3745;0.3753;0.3762;0.3773;0.3784;0.3796;0.3809;0.3823;0.3838;0.3855;0.3873;0.3891;0.391;0.3931;0.3954;0.3976;0.4;0.4024;0.4049;0.4073;0.4099;0.4124;0.415;0.4176;0.4202;0.4228;0.4255;0.4281;0.4306;0.4331;0.4356;0.4381;0.4407;0.4431;0.4453;0.4474;0.4496;0.4518;0.4538;0.4559;0.4579;0.46;0.4622;0.4643;0.4664;0.4684;0.4704;0.4724;0.4745;0.4771;0.4802;0.4838;0.4875;0.4915;0.4958;0.5002;0.5047;0.5092;0.5139;0.5188;0.5239;0.5296;0.5356;0.5416;0.5478;0.554;0.5605;0.567;0.5734;0.5797;0.5858;0.5918;0.5975;0.6031;0.6085;0.6136;0.6184;0.623;0.6272;0.631;0.6346;0.6381;0.6413;0.6442;0.6467;0.6488;0.6506;0.6523;0.6538;0.6551;0.6563;0.6574;0.6584;0.6592;0.66;0.6606;0.6612;0.6617;0.6621;0.6624;0.6626;0.6627;0.6627;0.6626;0.6624;0.6621;0.6617;0.6611;0.6605;0.6598;0.6591;0.6583;0.6574;0.6566;0.6558;0.655;0.654;0.653;0.6521;0.6512;0.6503;0.6493;0.6482;0.6472;0.6462;0.6453;0.6444;0.6435;0.6426;0.6416;0.6407;0.6399;0.6391;0.6384;0.6377;0.6371;0.6365;0.636;0.6355;0.635;0.6346;0.6343;0.634;0.6338;0.6336;0.6333;0.633;0.6328;0.6326;0.6324;0.6322;0.632;0.6319;0.6317;0.6315;0.6313;0.631;0.6308;0.6305;0.6303;0.6299;0.6294;0.6289;0.6283;0.6276;0.6269;0.626;0.6251;0.6242;0.6231;0.622;0.6208;0.6196;0.6183;0.617;0.6157;0.6144;0.613;0.6117;0.6104;0.609;0.6077;0.6065;0.6052;0.604;0.6028;0.6017;0.6006;0.5995;0.5985;0.5975;0.5967;0.5959;0.5952;0.5945;0.5939;0.5934;0.5931;0.5929;0.5929;0.593;0.5932;0.5934;0.5937;0.594;0.5946;0.5953;0.5963;0.5976;0.5992;0.6011;0.6034;0.6061;0.6089;0.6117;0.6143;0.6167;0.6189;0.621;0.6229;0.6245;0.6258;0.6271;0.6286;0.6303;0.6321;0.634;0.6359;0.6378;0.6402;0.6429;0.6444;0.6436;0.6412;0.6392;0.6383;0.6383;0.6386;0.6388;0.6393;0.64;0.6409;0.6419;0.6431;0.6443;0.6449;0.6446;0.6438;0.6432;0.643;0.6428;0.6424;0.6418;0.6411;0.6403;0.6394;0.6385;0.6375;0.6365;0.6354;0.6343;0.6334;0.6325;0.6318;0.6311;0.6305;0.6297;0.629;0.6282;0.6271;0.6261;0.6249;0.6236;0.6222;0.6212;0.6204;0.6195;0.6189;0.6188;0.6192;0.6201;0.6215;0.6235;0.6257;0.6285;0.6324;0.6382;0.6455;0.6539;0.6635;0.6749;0.6883;0.7038;0.7213;0.7401;0.7603;0.7813;0.8022;0.822;0.8396;0.8554;0.869;0.8802;0.8893;0.896;0.9001;0.9019;0.9013;0.8988;0.8948;0.8899;0.8841;0.8779;0.8715;0.865;0.8586;0.8523;0.8461;0.84;0.8338;0.8278;0.8218;0.8161;0.8105;0.8052;0.8002;0.7956;0.7914;0.7878;0.7847;0.7824;0.7807;0.7798;0.7796;0.7803;0.7817;0.784;0.7869;0.7905;0.7946;0.7991;0.8039;0.8089;0.8141;0.8191;0.8238;0.8284;0.8326;0.8366;0.8403;0.8436;0.8466;0.8493;0.8515;0.8535;0.8551;0.8565;0.8577;0.8585;0.8592;0.8595;0.8594;0.8591;0.8585;0.8575;0.8562;0.8545;0.8525;0.8502;0.8477;0.8448;0.8418;0.8386;0.8353;0.832;0.8288;0.8256;0.8224;0.8194;0.8164;0.8134;0.8106;0.8078;0.8049;0.8022;0.7997;0.7974;0.7952;0.7934;0.7919;0.7911;0.7911;0.7921;0.7944;0.7982;0.8037;0.8107;0.8189;0.8277;0.8369;0.8461;0.8554;0.8648;0.8741;0.8826;0.8893;0.8937;0.8964;0.8996;0.9055;0.9145;0.9266;0.9386;0.942;0.9349;0.927;0.9237;0.9235;0.9243;0.9261;0.93;0.9343;0.9346;0.9309;0.928;0.9278;0.9287;0.9302;0.9327;0.9355;0.938;0.9405;0.9438;0.9483;0.9537;0.9597;0.9664;0.9737;0.9821;0.9916;1.0019;1.012;1.0215;1.0306;1.0401;1.0501;1.0599;1.0689;1.077;1.0841;1.0895;1.0929;1.0945;1.0949;1.0946;1.0933;1.0912;1.0885;1.0854;1.0819;1.0782
0.286;0.2858;0.285;0.2841;0.2839;0.2846;0.2853;0.2856;0.2854;0.2854;0.2857;0.2858;0.2854;0.285;0.2849;0.2849;0.2848;0.2846;0.2843;0.2842;0.2842;0.2842;0.2846;0.2852;0.2857;0.2854;0.2847;0.2841;0.284;0.2845;0.2852;0.2856;0.2859;0.2863;0.2863;0.286;0.2858;0.2857;0.2862;0.2868;0.287;0.2868;0.2868;0.2872;0.2877;0.2878;0.2877;0.2879;0.2884;0.2886;0.2889;0.2893;0.2897;0.29;0.2902;0.2901;0.2901;0.2903;0.2904;0.2904;0.2907;0.2914;0.2918;0.2919;0.2921;0.2926;0.2931;0.2933;0.2935;0.2938;0.2941;0.2942;0.2944;0.2946;0.2944;0.294;0.2939;0.2942;0.2946;0.2951;0.2953;0.2953;0.2954;0.2956;0.2955;0.2951;0.2949;0.2951;0.2952;0.2952;0.2951;0.2946;0.2942;0.294;0.294;0.2942;0.2941;0.2936;0.2929;0.2927;0.293;0.2933;0.2936;0.2933;0.2928;0.2925;0.2923;0.292;0.292;0.292;0.2918;0.2916;0.2915;0.2913;0.2914;0.2915;0.2915;0.2915;0.2916;0.2915;0.2913;0.2914;0.2918;0.2922;0.2925;0.2927;0.2932;0.2935;0.2936;0.294;0.2945;0.2949;0.2952;0.296;0.2969;0.2976;0.2981;0.2987;0.2997;0.3008;0.3013;0.3014;0.3019;0.3029;0.3041;0.3051;0.3057;0.3061;0.3069;0.3081;0.3091;0.3098;0.3102;0.3108;0.3117;0.3127;0.3139;0.3148;0.3155;0.3162;0.3171;0.3181;0.3188;0.3195;0.3202;0.3209;0.3215;0.3222;0.323;0.3237;0.3244;0.3251;0.3255;0.3259;0.3265;0.3272;0.3274;0.3273;0.3272;0.3274;0.3277;0.3281;0.3284;0.3285;0.3286;0.3288;0.3289;0.3288;0.3288;0.3289;0.329;0.3289;0.3289;0.329;0.329;0.3291;0.3291;0.329;0.3288;0.3286;0.3287;0.3289;0.3289;0.3286;0.3282;0.3279;0.3278;0.3278;0.3276;0.3272;0.3269;0.3267;0.3264;0.3261;0.3257;0.3254;0.3254;0.3252;0.325;0.3247;0.3243;0.3237;0.3232;0.323;0.323;0.3228;0.3225;0.3221;0.3217;0.3214;0.3211;0.3207;0.32;0.3193;0.3189;0.3187;0.3185;0.3182;0.318;0.3178;0.3175;0.3171;0.3167;0.3164;0.3161;0.3157;0.3153;0.3151;0.3148;0.3145;0.3142;0.3137;0.3131;0.3128;0.3127;0.3124;0.3119;0.3114;0.3111;0.3108;0.3106;0.3104;0.3101;0.3097;0.3093;0.309;0.3086;0.308;0.3075;0.3071;0.3069;0.3067;0.3064;0.3059;0.3055;0.3054;0.3054;0.3052;0.305;0.3046;0.3041;0.3036;0.3033;0.3032;0.3031;0.3029;0.3028;0.3026;0.3023;0.302;0.3019;0.3018;0.3017;0.3016;0.3015;0.3011;0.3008;0.3006;0.3006;0.3007;0.3006;0.3006;0.3005;0.3005;0.3006;0.3006;0.3005;0.3005;0.3004;0.3003;0.3003;0.3005;0.3006;0.3006;0.3007;0.3007;0.3007;0.3008;0.301;0.3011;0.3012;0.3014;0.3016;0.3018;0.302;0.3022;0.3025;0.303;0.3036;0.3042;0.3048;0.3056;0.3066;0.3075;0.3087;0.3101;0.3116;0.3133;0.315;0.317;0.3192;0.3215;0.3238;0.3263;0.329;0.3317;0.3345;0.3374;0.3402;0.343;0.3458;0.3488;0.3519;0.355;0.358;0.361;0.3638;0.3666;0.3695;0.3726;0.3755;0.3782;0.3808;0.3834;0.386;0.3885;0.3909;0.3931;0.3954;0.3975;0.3994;0.4012;0.403;0.4047;0.4064;0.408;0.4097;0.4114;0.4132;0.4149;0.4167;0.4184;0.4202;0.4219;0.4236;0.4252;0.4268;0.4284;0.43;0.4315;0.4328;0.4339;0.4349;0.4359;0.4369;0.4378;0.4385;0.4392;0.44;0.4406;0.4409;0.4412;0.4413;0.4413;0.4412;0.4413;0.4415;0.4413;0.4409;0.4404;0.4396;0.4386;0.4376;0.4365;0.4352;0.4336;0.4319;0.4302;0.4285;0.4269;0.4252;0.4235;0.4218;0.4201;0.4186;0.4174;0.4161;0.4148;0.4136;0.4124;0.4113;0.4101;0.4091;0.4082;0.4074;0.4067;0.4059;0.4053;0.4047;0.4041;0.4036;0.4033;0.4029;0.4025;0.4021;0.4017;0.4014;0.4011;0.4008;0.4006;0.4004;0.4003;0.4001;0.4;0.3999;0.3998;0.3997;0.3995;0.3991;0.3988;0.3986;0.3984;0.3981;0.3978;0.3974;0.3969;0.3966;0.3963;0.396;0.3957;0.3954;0.3951;0.3948;0.3946;0.3944;0.3942;0.3941;0.394;0.3941;0.3942;0.3942;0.3944;0.3946;0.3949;0.3952;0.3957;0.3962;0.3969;0.3977;0.3984;0.3993;0.4003;0.4015;0.4028;0.4042;0.4057;0.4072;0.4089;0.4106;0.4126;0.4146;0.4168;0.419;0.4214;0.4238;0.4262;0.4288;0.4315;0.4341;0.4368;0.4395;0.4422;0.4448;0.4475;0.4502;0.453;0.4556;0.4582;0.4606;0.4632;0.4659;0.4684;0.4706;0.4727;0.475;0.4772;0.4794;0.4814;0.4835;0.4857;0.4879;0.4901;0.4922;0.4942;0.4962;0.4982;0.5002;0.5028;0.506;0.5096;0.5135;0.5176;0.5219;0.5264;0.5308;0.5353;0.54;0.5449;0.55;0.5556;0.5614;0.5674;0.5735;0.5796;0.5859;0.5922;0.5983;0.6043;0.6103;0.6161;0.6217;0.627;0.6322;0.6372;0.642;0.6465;0.6505;0.6543;0.6578;0.6611;0.6641;0.6668;0.6692;0.6712;0.6731;0.6748;0.6764;0.6778;0.679;0.68;0.6809;0.6817;0.6823;0.6829;0.6835;0.684;0.6844;0.6847;0.6849;0.6851;0.6852;0.685;0.6849;0.6846;0.6843;0.6838;0.6831;0.6825;0.6819;0.6812;0.6804;0.6796;0.6788;0.6779;0.677;0.6761;0.6752;0.6744;0.6736;0.6727;0.6718;0.6709;0.67;0.669;0.6682;0.6674;0.6665;0.6656;0.6648;0.664;0.6633;0.6626;0.6619;0.6614;0.6609;0.6604;0.66;0.6596;0.6592;0.6589;0.6586;0.6585;0.6583;0.658;0.6578;0.6576;0.6574;0.6572;0.657;0.6568;0.6567;0.6566;0.6564;0.6563;0.6561;0.6558;0.6556;0.6553;0.6549;0.6545;0.654;0.6535;0.653;0.6523;0.6515;0.6506;0.6497;0.6487;0.6476;0.6464;0.6452;0.6439;0.6427;0.6415;0.6402;0.6389;0.6376;0.6363;0.635;0.6338;0.6325;0.6313;0.6302;0.6291;0.6279;0.6268;0.6258;0.6247;0.6238;0.6229;0.6222;0.6214;0.6208;0.6202;0.6197;0.6193;0.619;0.6189;0.619;0.6192;0.6194;0.6196;0.6198;0.6203;0.6211;0.6221;0.6234;0.625;0.6269;0.6292;0.6318;0.6346;0.6374;0.64;0.6424;0.6446;0.6467;0.6485;0.6499;0.6512;0.6525;0.6539;0.6555;0.6572;0.659;0.6608;0.6627;0.6651;0.6677;0.6692;0.6685;0.6663;0.6644;0.6636;0.6636;0.6638;0.6641;0.6646;0.6653;0.6662;0.6672;0.6683;0.6695;0.6701;0.6699;0.6692;0.6686;0.6684;0.6682;0.6679;0.6673;0.6666;0.6658;0.665;0.664;0.6631;0.6621;0.661;0.66;0.659;0.6582;0.6575;0.6569;0.6562;0.6555;0.6548;0.6541;0.6531;0.652;0.6509;0.6496;0.6482;0.6472;0.6464;0.6456;0.645;0.6449;0.6453;0.6461;0.6476;0.6496;0.6518;0.6543;0.6581;0.6636;0.6707;0.6788;0.6881;0.6988;0.7114;0.726;0.7426;0.7603;0.7791;0.7989;0.8186;0.8374;0.8541;0.8692;0.8822;0.893;0.9019;0.9084;0.9125;0.9144;0.914;0.9116;0.9078;0.903;0.8976;0.8918;0.8858;0.8796;0.8735;0.8674;0.8615;0.8557;0.85;0.8443;0.8387;0.8333;0.8281;0.8231;0.8183;0.814;0.8101;0.8067;0.8038;0.8017;0.8003;0.7996;0.7995;0.8002;0.8016;0.8039;0.8068;0.8103;0.8144;0.8188;0.8235;0.8284;0.8333;0.8381;0.8427;0.8471;0.8512;0.8551;0.8587;0.8619;0.8648;0.8674;0.8696;0.8716;0.8733;0.8747;0.8758;0.8766;0.8772;0.8775;0.8774;0.8771;0.8765;0.8755;0.8742;0.8725;0.8706;0.8683;0.8659;0.8631;0.8602;0.8572;0.8541;0.851;0.8479;0.8448;0.8419;0.839;0.8361;0.8334;0.8306;0.8279;0.8252;0.8226;0.8202;0.818;0.8161;0.8144;0.8131;0.8123;0.8122;0.8131;0.8153;0.8189;0.8241;0.8307;0.8385;0.847;0.8559;0.8649;0.8739;0.8829;0.8919;0.9001;0.9067;0.9109;0.9135;0.9166;0.9223;0.931;0.9426;0.9542;0.9575;0.9506;0.9427;0.9395;0.9392;0.94;0.9417;0.9454;0.9495;0.9499;0.9465;0.9438;0.9435;0.9445;0.946;0.9484;0.9511;0.9535;0.9559;0.9591;0.9635;0.9688;0.9747;0.9811;0.9883;0.9963;1.0053;1.0151;1.0249;1.0339;1.0427;1.052;1.0616;1.0709;1.0797;1.0875;1.0942;1.0995;1.1029;1.1043;1.1046;1.1043;1.1034;1.1014;1.0985;1.0952;1.0917;1.0884
0.2726;0.273;0.2727;0.2724;0.2726;0.2726;0.2724;0.2724;0.2728;0.2733;0.2738;0.2735;0.2727;0.2721;0.2718;0.2716;0.2716;0.2717;0.2719;0.2721;0.272;0.2719;0.2719;0.2722;0.2728;0.2731;0.2726;0.272;0.272;0.2723;0.2726;0.2729;0.273;0.273;0.2729;0.2727;0.2729;0.2734;0.2739;0.2741;0.2742;0.2743;0.2745;0.2746;0.2748;0.2751;0.2752;0.2754;0.2757;0.276;0.2761;0.2764;0.277;0.2774;0.2774;0.2772;0.2771;0.2773;0.278;0.2787;0.2789;0.2789;0.2791;0.2792;0.2793;0.2799;0.2806;0.2808;0.2807;0.2807;0.2807;0.2807;0.281;0.2813;0.2814;0.2815;0.2817;0.2817;0.2814;0.2813;0.2813;0.2815;0.282;0.2825;0.2825;0.2821;0.2818;0.2819;0.282;0.2821;0.282;0.2819;0.2817;0.2814;0.2809;0.2807;0.2809;0.281;0.2804;0.2797;0.2796;0.28;0.2803;0.2801;0.2796;0.2793;0.279;0.2787;0.2786;0.2788;0.2789;0.2789;0.2789;0.2789;0.2789;0.279;0.279;0.2789;0.2787;0.2784;0.2781;0.2781;0.2785;0.2792;0.2799;0.2802;0.2803;0.2802;0.2803;0.2807;0.2812;0.2814;0.2817;0.2825;0.2835;0.2841;0.2845;0.2852;0.2861;0.287;0.2876;0.2881;0.2888;0.2896;0.2903;0.2909;0.2916;0.2924;0.2932;0.2941;0.2948;0.2955;0.2961;0.2968;0.2977;0.2989;0.3001;0.3009;0.3014;0.3021;0.3028;0.3037;0.3046;0.3054;0.306;0.3066;0.307;0.3075;0.308;0.3088;0.3096;0.3104;0.3108;0.3109;0.3112;0.3118;0.3122;0.3123;0.3123;0.3123;0.3125;0.313;0.3134;0.3136;0.3135;0.3137;0.314;0.3139;0.3136;0.3136;0.3136;0.3135;0.3137;0.3141;0.3142;0.314;0.314;0.3142;0.314;0.3137;0.3137;0.3138;0.3137;0.3133;0.3131;0.313;0.3129;0.3127;0.3125;0.3123;0.3121;0.312;0.3118;0.3113;0.3108;0.3106;0.3104;0.3102;0.3101;0.31;0.3096;0.309;0.3086;0.3083;0.308;0.3077;0.3072;0.3069;0.3068;0.3067;0.3063;0.3058;0.3053;0.305;0.3047;0.3045;0.3042;0.304;0.3038;0.3037;0.3034;0.3028;0.3023;0.3018;0.3016;0.3015;0.3013;0.3011;0.3008;0.3004;0.2999;0.2995;0.2992;0.299;0.2989;0.2987;0.2982;0.2978;0.2976;0.2973;0.2968;0.2963;0.296;0.2957;0.2954;0.295;0.2946;0.2943;0.294;0.2937;0.2935;0.2933;0.293;0.2926;0.2923;0.2921;0.2919;0.2916;0.2913;0.291;0.2907;0.2905;0.2903;0.2901;0.2899;0.2897;0.2896;0.2893;0.289;0.2888;0.2886;0.2886;0.2887;0.2886;0.2885;0.2882;0.288;0.2878;0.2877;0.2877;0.2876;0.2875;0.2874;0.2874;0.2874;0.2873;0.2872;0.2873;0.2873;0.2873;0.2873;0.2874;0.2875;0.2876;0.2876;0.2877;0.2878;0.2878;0.2877;0.2878;0.2882;0.2885;0.2886;0.2887;0.2889;0.2892;0.2896;0.2899;0.2904;0.291;0.2917;0.2925;0.2933;0.2941;0.2951;0.2963;0.2978;0.2995;0.3013;0.3032;0.3051;0.3073;0.3095;0.3119;0.3143;0.3169;0.3194;0.322;0.3247;0.3274;0.3301;0.3329;0.3358;0.3388;0.3416;0.3444;0.3472;0.35;0.3526;0.3553;0.3579;0.3605;0.3632;0.3657;0.3681;0.3704;0.3725;0.3746;0.3768;0.3788;0.3807;0.3824;0.3841;0.3858;0.3873;0.3887;0.3902;0.3918;0.3937;0.3955;0.3972;0.3987;0.4003;0.4018;0.4035;0.4053;0.4068;0.4082;0.4097;0.4111;0.4124;0.4135;0.4145;0.4154;0.4162;0.4171;0.418;0.4188;0.4193;0.4197;0.42;0.4203;0.4205;0.4206;0.4208;0.421;0.4209;0.4207;0.4202;0.4196;0.4188;0.418;0.4172;0.4162;0.4148;0.4133;0.4118;0.4102;0.4086;0.407;0.4054;0.4039;0.4023;0.4008;0.3993;0.3979;0.3965;0.3953;0.3942;0.3931;0.392;0.391;0.3901;0.3893;0.3884;0.3876;0.3868;0.3862;0.3857;0.3852;0.3847;0.3843;0.384;0.3837;0.3833;0.3829;0.3826;0.3824;0.3822;0.382;0.3818;0.3816;0.3815;0.3814;0.3813;0.3811;0.381;0.3808;0.3806;0.3804;0.3802;0.3799;0.3796;0.3793;0.379;0.3786;0.3782;0.3779;0.3776;0.3773;0.3769;0.3766;0.3764;0.3763;0.3762;0.376;0.3759;0.3758;0.3757;0.3758;0.376;0.3761;0.3762;0.3765;0.3769;0.3772;0.3777;0.3784;0.3791;0.3799;0.3808;0.3817;0.3828;0.384;0.3853;0.3867;0.3882;0.3898;0.3915;0.3933;0.3952;0.3973;0.3994;0.4016;0.4038;0.4061;0.4085;0.411;0.4136;0.4161;0.4186;0.4212;0.4238;0.4264;0.4289;0.4314;0.434;0.4364;0.4388;0.4413;0.4438;0.4462;0.4483;0.4504;0.4525;0.4546;0.4566;0.4586;0.4606;0.4625;0.4646;0.4667;0.4687;0.4707;0.4727;0.4746;0.4766;0.4791;0.4821;0.4855;0.4892;0.4932;0.4973;0.5015;0.5058;0.51;0.5145;0.5192;0.5241;0.5294;0.5351;0.541;0.5469;0.553;0.5591;0.5654;0.5715;0.5774;0.5832;0.5888;0.5942;0.5996;0.6048;0.6097;0.6145;0.6189;0.6229;0.6266;0.6302;0.6335;0.6366;0.6392;0.6416;0.6437;0.6456;0.6473;0.6487;0.65;0.6512;0.6523;0.6532;0.6541;0.6548;0.6555;0.6561;0.6566;0.6569;0.6573;0.6576;0.6577;0.6577;0.6576;0.6573;0.657;0.6566;0.6561;0.6555;0.6548;0.6541;0.6534;0.6527;0.6519;0.651;0.6501;0.6492;0.6483;0.6475;0.6467;0.6458;0.6448;0.6439;0.6429;0.642;0.6411;0.6402;0.6393;0.6384;0.6375;0.6367;0.636;0.6352;0.6345;0.6339;0.6332;0.6327;0.6322;0.6318;0.6314;0.6311;0.6307;0.6304;0.6301;0.6299;0.6297;0.6294;0.6293;0.6291;0.6289;0.6288;0.6286;0.6284;0.6282;0.6279;0.6278;0.6277;0.6275;0.6272;0.6269;0.6265;0.6262;0.6257;0.6252;0.6245;0.6238;0.623;0.6221;0.6212;0.6202;0.619;0.6178;0.6166;0.6154;0.6141;0.6129;0.6117;0.6104;0.6092;0.6079;0.6066;0.6054;0.6042;0.603;0.6019;0.6008;0.5997;0.5986;0.5976;0.5966;0.5957;0.5948;0.594;0.5933;0.5927;0.5921;0.5917;0.5913;0.5911;0.591;0.5911;0.5913;0.5915;0.5918;0.5921;0.5926;0.5932;0.5942;0.5955;0.5971;0.599;0.6013;0.6038;0.6066;0.6094;0.6119;0.6142;0.6164;0.6184;0.6203;0.6219;0.6233;0.6246;0.626;0.6276;0.6293;0.6311;0.6329;0.6349;0.6372;0.6397;0.6412;0.6403;0.638;0.636;0.6351;0.6351;0.6353;0.6356;0.6361;0.6368;0.6377;0.6386;0.6398;0.6409;0.6416;0.6412;0.6404;0.6399;0.6396;0.6394;0.639;0.6384;0.6378;0.637;0.6361;0.6352;0.6343;0.6333;0.6323;0.6313;0.6304;0.6295;0.6288;0.6282;0.6276;0.6269;0.6262;0.6254;0.6244;0.6234;0.6223;0.621;0.6197;0.6187;0.6179;0.6171;0.6165;0.6165;0.6168;0.6176;0.6191;0.621;0.6231;0.6256;0.6293;0.6347;0.6417;0.6497;0.6589;0.6696;0.6823;0.697;0.7138;0.7317;0.751;0.7711;0.7912;0.8103;0.8274;0.8427;0.856;0.867;0.876;0.8826;0.8867;0.8885;0.8881;0.8858;0.882;0.8771;0.8715;0.8655;0.8593;0.853;0.8468;0.8406;0.8346;0.8286;0.8227;0.8168;0.8111;0.8056;0.8003;0.7952;0.7904;0.7859;0.7819;0.7784;0.7754;0.7732;0.7717;0.7709;0.7708;0.7714;0.7728;0.775;0.7779;0.7815;0.7856;0.79;0.7947;0.7996;0.8046;0.8094;0.8142;0.8187;0.8229;0.8267;0.8303;0.8336;0.8366;0.8392;0.8414;0.8434;0.845;0.8464;0.8475;0.8483;0.8488;0.8491;0.8491;0.8488;0.8481;0.847;0.8457;0.844;0.8421;0.8397;0.8372;0.8343;0.8313;0.8282;0.8251;0.8218;0.8186;0.8154;0.8124;0.8094;0.8066;0.8038;0.801;0.7981;0.7953;0.7927;0.7902;0.788;0.786;0.7842;0.7828;0.782;0.782;0.783;0.7852;0.7888;0.7941;0.8008;0.8087;0.8173;0.8263;0.8354;0.8445;0.8537;0.8629;0.8713;0.8781;0.8824;0.8849;0.8879;0.8936;0.9024;0.9142;0.9259;0.9291;0.9221;0.9143;0.9111;0.9108;0.9116;0.9133;0.917;0.9211;0.9214;0.9179;0.9151;0.915;0.9159;0.9174;0.9197;0.9224;0.9247;0.9272;0.9305;0.935;0.9404;0.9463;0.9528;0.96;0.9682;0.9773;0.9873;0.9971;1.0064;1.0155;1.0249;1.0346;1.0441;1.0529;1.0609;1.0677;1.0729;1.0763;1.0778;1.0783;1.0779;1.0767;1.0747;1.0719;1.0686;1.0651;1.0618
0.2775;0.2778;0.2774;0.2767;0.2765;0.2766;0.2767;0.2764;0.2762;0.2764;0.2771;0.2775;0.2772;0.2764;0.2759;0.2759;0.2763;0.2763;0.2761;0.2757;0.2754;0.2754;0.2756;0.2757;0.276;0.2763;0.2762;0.2759;0.2761;0.2768;0.2771;0.2766;0.276;0.2762;0.2765;0.2764;0.2766;0.2769;0.2773;0.2778;0.2782;0.2782;0.2778;0.2778;0.2782;0.2788;0.2792;0.2793;0.2791;0.2791;0.2794;0.2796;0.28;0.2804;0.2805;0.2803;0.2801;0.2802;0.2808;0.2816;0.2821;0.2824;0.2825;0.2824;0.2823;0.2827;0.2833;0.2837;0.2835;0.2836;0.2839;0.284;0.284;0.2842;0.2845;0.2845;0.2844;0.2841;0.2842;0.2848;0.2851;0.2851;0.2853;0.2856;0.2854;0.2849;0.2847;0.2848;0.2848;0.2846;0.2844;0.2842;0.2842;0.2841;0.2839;0.2838;0.2836;0.2833;0.283;0.2827;0.2826;0.2828;0.2829;0.2826;0.2823;0.2821;0.282;0.2818;0.2816;0.2815;0.2814;0.2812;0.2809;0.2809;0.281;0.2811;0.281;0.2808;0.2808;0.2808;0.2808;0.2809;0.2813;0.2818;0.2823;0.2825;0.2825;0.2824;0.2825;0.283;0.2834;0.2838;0.2842;0.2848;0.2855;0.2863;0.2867;0.2871;0.2879;0.2888;0.2895;0.29;0.2906;0.2913;0.2924;0.2934;0.2942;0.2948;0.2955;0.2965;0.2975;0.2981;0.2984;0.299;0.3;0.3013;0.3023;0.303;0.3036;0.3045;0.3056;0.3066;0.3071;0.3074;0.3077;0.3084;0.3093;0.3101;0.311;0.3116;0.312;0.3126;0.3132;0.3136;0.3139;0.3141;0.3144;0.3146;0.3147;0.3148;0.3152;0.3156;0.3158;0.3159;0.3159;0.3161;0.3163;0.3163;0.3162;0.316;0.3158;0.3159;0.3162;0.3163;0.3161;0.3157;0.3156;0.3158;0.3159;0.3157;0.3157;0.3159;0.3159;0.3155;0.3152;0.3151;0.3149;0.3148;0.3147;0.3146;0.3143;0.3141;0.3138;0.3134;0.3131;0.3127;0.3123;0.3121;0.3119;0.3116;0.3111;0.3105;0.31;0.3098;0.3096;0.3095;0.3093;0.309;0.3086;0.3082;0.3078;0.3075;0.3071;0.3066;0.3061;0.3057;0.3054;0.3051;0.3048;0.3047;0.3043;0.3039;0.3037;0.3035;0.303;0.3025;0.3022;0.3019;0.3016;0.3013;0.3011;0.3009;0.3005;0.3002;0.2999;0.2996;0.2991;0.2987;0.2984;0.298;0.2976;0.2973;0.297;0.2966;0.296;0.2956;0.2953;0.2951;0.2948;0.2946;0.2944;0.2941;0.2936;0.2932;0.2929;0.2927;0.2926;0.2924;0.292;0.2916;0.2913;0.2912;0.291;0.2908;0.2905;0.2902;0.29;0.2899;0.2898;0.2896;0.2894;0.2892;0.2891;0.289;0.2889;0.2887;0.2885;0.2882;0.2881;0.2879;0.2878;0.2878;0.2879;0.288;0.2878;0.2876;0.2876;0.2878;0.2879;0.2878;0.2877;0.2877;0.2878;0.2878;0.2878;0.2879;0.288;0.2881;0.2881;0.2881;0.2882;0.2884;0.2887;0.289;0.2893;0.2896;0.2899;0.2903;0.2906;0.2911;0.2917;0.2925;0.2934;0.2944;0.2955;0.2969;0.2983;0.2998;0.3015;0.3035;0.3056;0.3079;0.3103;0.3127;0.3151;0.3177;0.3203;0.323;0.3258;0.3285;0.3312;0.334;0.337;0.34;0.3429;0.3458;0.3487;0.3515;0.3542;0.3569;0.3596;0.3623;0.3649;0.3673;0.3696;0.3721;0.3743;0.3764;0.3785;0.3805;0.3824;0.3843;0.386;0.3876;0.3891;0.3907;0.3923;0.394;0.3957;0.3974;0.3991;0.4008;0.4025;0.4041;0.4057;0.4074;0.4089;0.4103;0.4118;0.4132;0.4145;0.4156;0.4166;0.4175;0.4184;0.4193;0.4201;0.4208;0.4214;0.4219;0.4222;0.4225;0.4227;0.4228;0.4227;0.4227;0.4227;0.4225;0.422;0.4214;0.4208;0.42;0.419;0.4178;0.4166;0.4154;0.414;0.4123;0.4107;0.409;0.4074;0.4058;0.4042;0.4028;0.4014;0.4001;0.3988;0.3975;0.3963;0.3952;0.3943;0.3933;0.3924;0.3915;0.3907;0.3899;0.3891;0.3885;0.388;0.3874;0.3869;0.3866;0.3863;0.3859;0.3855;0.3852;0.3848;0.3846;0.3844;0.3842;0.384;0.3839;0.3838;0.3836;0.3835;0.3834;0.3832;0.383;0.3829;0.3827;0.3824;0.3821;0.3818;0.3815;0.3812;0.3809;0.3806;0.3803;0.38;0.3796;0.3792;0.3788;0.3786;0.3783;0.3782;0.3782;0.3781;0.378;0.378;0.378;0.3781;0.3783;0.3785;0.3788;0.3792;0.3796;0.3802;0.3808;0.3816;0.3823;0.3831;0.3841;0.3853;0.3867;0.388;0.3894;0.3909;0.3926;0.3943;0.3962;0.3981;0.4002;0.4025;0.4048;0.4071;0.4095;0.4119;0.4144;0.417;0.4196;0.4222;0.4249;0.4275;0.43;0.4326;0.4352;0.4378;0.4403;0.4428;0.4452;0.4477;0.4501;0.4523;0.4543;0.4565;0.4586;0.4607;0.4627;0.4647;0.4668;0.4689;0.4711;0.4731;0.475;0.477;0.4789;0.481;0.4835;0.4865;0.4899;0.4936;0.4976;0.5018;0.5062;0.5106;0.5151;0.5198;0.5246;0.5295;0.5349;0.5406;0.5464;0.5523;0.5585;0.5647;0.5709;0.5769;0.5828;0.5887;0.5944;0.5998;0.6051;0.6103;0.6153;0.62;0.6244;0.6284;0.6322;0.6356;0.6389;0.6418;0.6445;0.6468;0.6489;0.6508;0.6524;0.6538;0.6552;0.6563;0.6573;0.6582;0.6591;0.6598;0.6605;0.661;0.6616;0.662;0.6623;0.6624;0.6625;0.6625;0.6624;0.6622;0.6619;0.6615;0.661;0.6604;0.6597;0.6591;0.6583;0.6575;0.6568;0.656;0.6551;0.6542;0.6534;0.6525;0.6515;0.6506;0.6497;0.6488;0.6479;0.647;0.6462;0.6453;0.6444;0.6436;0.6427;0.6419;0.6412;0.6405;0.6397;0.639;0.6385;0.638;0.6375;0.6371;0.6367;0.6364;0.6361;0.6358;0.6355;0.6353;0.6351;0.635;0.6348;0.6346;0.6344;0.6343;0.6341;0.634;0.6339;0.6338;0.6336;0.6333;0.633;0.6328;0.6325;0.6321;0.6317;0.6314;0.6308;0.6301;0.6293;0.6286;0.6278;0.6269;0.6259;0.6249;0.6237;0.6225;0.6212;0.62;0.6187;0.6175;0.6162;0.615;0.6138;0.6125;0.6113;0.61;0.6088;0.6077;0.6066;0.6055;0.6044;0.6034;0.6024;0.6015;0.6006;0.5998;0.5991;0.5985;0.5979;0.5974;0.597;0.5968;0.5966;0.5967;0.5969;0.597;0.5973;0.5976;0.5982;0.5988;0.5998;0.601;0.6026;0.6044;0.6066;0.6091;0.6119;0.6146;0.6171;0.6193;0.6214;0.6234;0.6251;0.6265;0.6278;0.629;0.6304;0.6319;0.6336;0.6353;0.6371;0.639;0.6413;0.6439;0.6455;0.6449;0.6428;0.641;0.6403;0.6403;0.6406;0.6409;0.6413;0.642;0.6428;0.6438;0.6449;0.6461;0.6468;0.6466;0.6459;0.6455;0.6453;0.6452;0.6448;0.6443;0.6437;0.6429;0.6421;0.6411;0.6402;0.6392;0.6382;0.6372;0.6363;0.6354;0.6347;0.6341;0.6335;0.6328;0.6321;0.6314;0.6304;0.6294;0.6283;0.6271;0.6257;0.6247;0.624;0.6232;0.6226;0.6226;0.623;0.6238;0.6253;0.6273;0.6295;0.6322;0.6359;0.6414;0.6485;0.6566;0.6659;0.6767;0.6894;0.7041;0.7208;0.7386;0.7577;0.7778;0.7978;0.8167;0.8336;0.8488;0.862;0.8729;0.8817;0.8882;0.8923;0.8941;0.8936;0.8911;0.8873;0.8825;0.8769;0.8709;0.8647;0.8585;0.8523;0.8463;0.8403;0.8343;0.8284;0.8227;0.8171;0.8117;0.8064;0.8013;0.7965;0.792;0.7881;0.7846;0.7818;0.7796;0.7781;0.7773;0.7772;0.7778;0.7792;0.7814;0.7844;0.788;0.792;0.7964;0.801;0.8058;0.8107;0.8155;0.8202;0.8246;0.8288;0.8327;0.8363;0.8397;0.8427;0.8453;0.8476;0.8496;0.8513;0.8527;0.8538;0.8547;0.8553;0.8555;0.8555;0.8552;0.8545;0.8536;0.8523;0.8506;0.8486;0.8464;0.8439;0.8412;0.8382;0.835;0.8319;0.8287;0.8255;0.8224;0.8194;0.8164;0.8135;0.8108;0.8081;0.8054;0.8027;0.8001;0.7976;0.7954;0.7934;0.7917;0.7903;0.7895;0.7894;0.7904;0.7925;0.7961;0.8012;0.8078;0.8156;0.8242;0.8331;0.8421;0.8512;0.8603;0.8694;0.8778;0.8845;0.8888;0.8913;0.8942;0.8997;0.9083;0.9198;0.9314;0.9347;0.928;0.9205;0.9173;0.917;0.9176;0.9192;0.9228;0.9268;0.9272;0.9238;0.9211;0.9209;0.9218;0.9233;0.9256;0.9283;0.9307;0.9333;0.9367;0.9412;0.9466;0.9527;0.9593;0.9665;0.9746;0.9838;0.9937;1.0036;1.0129;1.0219;1.0313;1.041;1.0505;1.0592;1.0671;1.074;1.0793;1.0825;1.0839;1.0842;1.0839;1.0828;1.0808;1.078;1.0748;1.0715;1.0683
0.2845;0.2846;0.2844;0.284;0.2837;0.2835;0.2835;0.2835;0.2837;0.2838;0.2838;0.2836;0.2835;0.2836;0.2836;0.2834;0.283;0.2826;0.2825;0.2828;0.2831;0.2829;0.2823;0.282;0.2823;0.2825;0.2819;0.2812;0.2811;0.2814;0.282;0.2825;0.2825;0.2824;0.2823;0.282;0.2817;0.2817;0.2821;0.2825;0.2829;0.2831;0.2829;0.2826;0.2827;0.283;0.2832;0.2831;0.283;0.2833;0.2839;0.2846;0.285;0.2851;0.2847;0.2843;0.284;0.2841;0.2845;0.2846;0.2846;0.2848;0.2852;0.2856;0.286;0.2865;0.2866;0.286;0.2856;0.2859;0.2864;0.2866;0.2864;0.2863;0.2861;0.2859;0.2859;0.286;0.2861;0.2863;0.2863;0.286;0.2859;0.2862;0.2862;0.2859;0.2856;0.2856;0.2854;0.2854;0.2855;0.2854;0.2854;0.2849;0.2843;0.284;0.284;0.2837;0.2832;0.2831;0.2835;0.284;0.284;0.2834;0.2827;0.2823;0.2821;0.2821;0.2822;0.2822;0.2818;0.2813;0.2809;0.2807;0.2808;0.2809;0.2809;0.2807;0.2805;0.2805;0.2805;0.2805;0.2804;0.2803;0.2803;0.2804;0.2805;0.2806;0.281;0.2815;0.2818;0.2819;0.2824;0.2831;0.2836;0.2839;0.2842;0.2847;0.2853;0.2856;0.2856;0.286;0.2866;0.2872;0.2878;0.2881;0.2884;0.2889;0.2898;0.2907;0.2914;0.2917;0.2921;0.2927;0.2933;0.2941;0.295;0.2955;0.2957;0.2963;0.2972;0.2978;0.2982;0.2985;0.299;0.2996;0.3003;0.3009;0.3011;0.3013;0.3016;0.3021;0.3025;0.3027;0.3029;0.3033;0.3036;0.3038;0.3038;0.3036;0.3038;0.3044;0.305;0.3051;0.3049;0.3048;0.3048;0.3047;0.3046;0.3048;0.3047;0.3044;0.3044;0.3046;0.3046;0.3042;0.3042;0.3045;0.3046;0.3045;0.3046;0.3049;0.3048;0.3044;0.3041;0.304;0.3039;0.3038;0.3036;0.3034;0.3031;0.3029;0.3028;0.3026;0.3023;0.302;0.3018;0.3015;0.3014;0.3013;0.3009;0.3002;0.2997;0.2996;0.2996;0.2994;0.299;0.2986;0.2982;0.2979;0.2976;0.2973;0.297;0.2966;0.2964;0.2962;0.2959;0.2954;0.295;0.2948;0.2945;0.2941;0.2939;0.2936;0.2932;0.2928;0.2927;0.2927;0.2924;0.292;0.2916;0.2913;0.2909;0.2906;0.2903;0.29;0.2896;0.2891;0.2888;0.2887;0.2884;0.2882;0.2879;0.2875;0.2871;0.2867;0.2864;0.2859;0.2854;0.285;0.2848;0.2847;0.2844;0.284;0.2837;0.2835;0.2834;0.2832;0.2829;0.2825;0.2821;0.2818;0.2815;0.2814;0.2813;0.2811;0.2809;0.2807;0.2806;0.2803;0.2801;0.2799;0.2798;0.2796;0.2794;0.2792;0.279;0.2789;0.2789;0.2788;0.2785;0.2784;0.2785;0.2785;0.2784;0.2783;0.2783;0.2785;0.2786;0.2785;0.2784;0.2784;0.2782;0.2781;0.2782;0.2782;0.2782;0.2782;0.2783;0.2785;0.2787;0.2789;0.2791;0.2793;0.2794;0.2795;0.2798;0.2802;0.2805;0.2809;0.2815;0.2823;0.2832;0.284;0.2851;0.2863;0.2875;0.2888;0.2904;0.2921;0.294;0.296;0.2982;0.3004;0.3027;0.3049;0.3071;0.3093;0.3116;0.3139;0.3162;0.3186;0.3213;0.324;0.3264;0.3287;0.331;0.3333;0.3356;0.3379;0.3403;0.3426;0.345;0.3471;0.349;0.351;0.3532;0.3554;0.3573;0.359;0.3606;0.3622;0.3637;0.3652;0.3665;0.3678;0.3691;0.3706;0.372;0.3735;0.3749;0.3764;0.3779;0.3795;0.381;0.3823;0.3835;0.3848;0.3859;0.387;0.388;0.3889;0.3897;0.3904;0.3911;0.3917;0.3922;0.3926;0.3929;0.3933;0.3935;0.3937;0.3937;0.3937;0.3937;0.3936;0.3935;0.3933;0.3929;0.3922;0.3914;0.3905;0.3896;0.3888;0.3877;0.3864;0.385;0.3837;0.3824;0.3809;0.3795;0.3781;0.3769;0.3756;0.3743;0.373;0.3718;0.3707;0.3697;0.3687;0.3679;0.367;0.3662;0.3655;0.3648;0.3641;0.3635;0.3629;0.3623;0.3617;0.3611;0.3607;0.3604;0.3602;0.3599;0.3596;0.3592;0.3589;0.3587;0.3585;0.3583;0.3582;0.3581;0.358;0.358;0.358;0.3579;0.3578;0.3576;0.3574;0.3572;0.357;0.3568;0.3566;0.3563;0.356;0.3557;0.3554;0.3552;0.3549;0.3546;0.3543;0.354;0.3538;0.3536;0.3535;0.3534;0.3534;0.3533;0.3533;0.3533;0.3534;0.3536;0.3539;0.3543;0.3547;0.3552;0.3557;0.3562;0.3569;0.3577;0.3586;0.3595;0.3606;0.3618;0.363;0.3642;0.3657;0.3673;0.3689;0.3706;0.3724;0.3742;0.3762;0.3782;0.3803;0.3824;0.3845;0.3866;0.3889;0.3913;0.3936;0.3959;0.3981;0.4004;0.4028;0.4051;0.4072;0.4093;0.4115;0.4138;0.4159;0.4178;0.4196;0.4214;0.4233;0.4251;0.4269;0.4287;0.4305;0.4324;0.4342;0.436;0.4377;0.4395;0.4411;0.4429;0.4451;0.4479;0.4509;0.4541;0.4575;0.4611;0.4647;0.4684;0.4722;0.4762;0.4803;0.4846;0.4893;0.4942;0.4992;0.5044;0.5096;0.5149;0.5203;0.5255;0.5306;0.5358;0.5408;0.5456;0.5503;0.5548;0.5592;0.5634;0.5674;0.571;0.5744;0.5776;0.5805;0.5833;0.5859;0.5882;0.5902;0.5919;0.5935;0.5949;0.5962;0.5974;0.5984;0.5993;0.6001;0.6008;0.6014;0.6021;0.6026;0.6031;0.6034;0.6037;0.6039;0.604;0.6039;0.6038;0.6037;0.6034;0.603;0.6025;0.602;0.6015;0.6008;0.6001;0.5995;0.5988;0.5982;0.5974;0.5966;0.5958;0.595;0.5942;0.5934;0.5926;0.5918;0.591;0.5902;0.5895;0.5887;0.5878;0.587;0.5863;0.5856;0.585;0.5843;0.5837;0.5831;0.5826;0.5822;0.5818;0.5815;0.5812;0.5809;0.5807;0.5804;0.5801;0.5799;0.5797;0.5795;0.5793;0.5792;0.579;0.5789;0.5788;0.5786;0.5785;0.5783;0.5782;0.578;0.5778;0.5775;0.5772;0.5767;0.5763;0.5758;0.5752;0.5746;0.5738;0.573;0.5722;0.5712;0.5702;0.5692;0.5681;0.5669;0.5658;0.5646;0.5634;0.5622;0.5611;0.5599;0.5587;0.5576;0.5564;0.5553;0.5543;0.5532;0.5522;0.5512;0.5503;0.5493;0.5484;0.5476;0.5468;0.5461;0.5454;0.5448;0.5442;0.5438;0.5435;0.5433;0.5434;0.5435;0.5436;0.5438;0.5441;0.5447;0.5455;0.5466;0.5479;0.5495;0.5514;0.5535;0.556;0.5585;0.561;0.5633;0.5654;0.5674;0.5691;0.5707;0.5719;0.573;0.574;0.575;0.5762;0.5775;0.5788;0.5801;0.5815;0.583;0.5846;0.5856;0.5852;0.5841;0.5832;0.5829;0.5831;0.5835;0.5839;0.5844;0.585;0.5857;0.5864;0.5872;0.588;0.5886;0.5886;0.5882;0.588;0.5879;0.5878;0.5875;0.5871;0.5866;0.5859;0.5851;0.5843;0.5834;0.5824;0.5815;0.5806;0.5797;0.579;0.5783;0.5777;0.5771;0.5765;0.5759;0.5752;0.5743;0.5733;0.5724;0.5712;0.5701;0.5692;0.5686;0.5679;0.5675;0.5676;0.568;0.5688;0.5701;0.5719;0.5739;0.5762;0.5796;0.5845;0.5908;0.5981;0.6064;0.616;0.6274;0.6407;0.6557;0.6719;0.6892;0.7075;0.7257;0.7432;0.7589;0.7732;0.7857;0.7964;0.8053;0.812;0.8165;0.8187;0.8186;0.8167;0.8133;0.8089;0.8037;0.798;0.7922;0.7862;0.7804;0.7746;0.7689;0.7633;0.7578;0.7524;0.7471;0.742;0.737;0.7322;0.7276;0.7235;0.7197;0.7164;0.7136;0.7115;0.71;0.7092;0.7091;0.7096;0.7109;0.713;0.7157;0.719;0.7228;0.7268;0.7312;0.7357;0.7403;0.7449;0.7493;0.7534;0.7572;0.7608;0.7642;0.7674;0.7702;0.7726;0.7747;0.7765;0.778;0.7792;0.7802;0.7809;0.7813;0.7814;0.7812;0.7807;0.7797;0.7784;0.7768;0.7748;0.7726;0.7701;0.7673;0.7644;0.7613;0.7583;0.7552;0.7523;0.7495;0.7467;0.7439;0.7411;0.7385;0.7358;0.7333;0.7307;0.7282;0.7258;0.7237;0.7217;0.7199;0.7183;0.7171;0.7164;0.7163;0.7173;0.7193;0.7228;0.7277;0.734;0.7415;0.7497;0.7582;0.7668;0.7753;0.784;0.7926;0.8008;0.8071;0.8108;0.8125;0.8143;0.8182;0.8247;0.8336;0.8426;0.8461;0.8426;0.8381;0.8361;0.8357;0.8359;0.8367;0.8387;0.8411;0.8412;0.8389;0.8373;0.8373;0.8381;0.8391;0.8406;0.8426;0.8447;0.8473;0.8507;0.8552;0.8607;0.8669;0.8735;0.8809;0.889;0.898;0.9077;0.9177;0.9272;0.9364;0.9458;0.9554;0.9648;0.9735;0.9812;0.9876;0.9924;0.9954;0.9967;0.9969;0.9962;0.9948;0.9925;0.9895;0.9861;0.9825;0.9786
