0.811971545;0.774313688;0.721040905;0.754304469;0.764604568;0.747068048;0.7301687;0.743071496;0.750435412;0.7504251;0.744045198;0.730889857;0.734055579;0.734745026;0.724868119;0.73296988;0.732702255;0.726317823;0.723006248;0.722827137;0.724244297;0.725098968;0.723563612;0.722127676;0.720615089;0.719758213;0.721612811;0.724684179;0.726742208;0.726333737;0.723634124;0.723679543;0.723407209;0.719142318;0.721384883;0.722232461;0.721621931;0.725995779;0.725562394;0.72525835;0.72677803;0.721914113;0.722677231;0.725054383;0.722887099;0.719537139;0.720264077;0.72323662;0.722935379;0.72217685;0.721651018;0.721416414;0.720999956;0.721971691;0.72161448;0.718806624;0.719022095;0.721067429;0.722759426;0.72192049;0.719387412;0.718725324;0.71968478;0.718411803;0.71890527;0.719589055;0.718951106;0.717636526;0.716956437;0.71726042;0.718177795;0.718166173;0.717596531;0.716611266;0.715208709;0.715204954;0.715991676;0.716355801;0.714516103;0.71436137;0.715185881;0.715078652;0.713463545;0.712626934;0.712868333;0.712969303;0.712230146;0.712058902;0.712782681;0.712532461;0.711280763;0.710365295;0.710734785;0.710185349;0.709669054;0.70967406;0.710169017;0.709909379;0.70942831;0.70914489;0.70884639;0.708737314;0.708624423;0.708328068;0.708192706;0.70826906;0.708166301;0.707329094;0.707146943;0.70735389;0.707372069;0.706439435;0.70612824;0.706155419;0.705839932;0.7057181;0.705459297;0.705056608;0.704772711;0.704216659;0.703959286;0.70418036;0.703882515;0.703954279;0.704039097;0.703545868;0.703196824;0.70274657;0.702312171;0.702371955;0.702222764;0.701767504;0.701152265;0.700756729;0.70070231;0.700627565;0.700089395;0.699721456;0.699802339;0.699972987;0.699189901;0.698456645;0.698030829;0.697854698;0.697488248;0.697257817;0.696980953;0.69629842;0.695961595;0.69580549;0.695526242;0.694762826;0.694321215;0.694087982;0.693783164;0.69367373;0.693272769;0.692682803;0.692428589;0.692266703;0.692226529;0.692162156;0.691429496;0.691209972;0.691268981;0.690978229;0.690605044;0.690193295;0.689914465;0.69003427;0.689554334;0.689093232;0.689172029;0.689231217;0.688820779;0.688314497;0.688336492;0.687918782;0.687513888;0.687251091;0.686627626;0.686158895;0.68588531;0.685665488;0.68517828;0.684999347;0.684937;0.684317768;0.683852673;0.683585525;0.683363259;0.682800353;0.682621479;0.682594597;0.682276428;0.682160795;0.682123303;0.681926489;0.681276977;0.680628419;0.680184901;0.679983735;0.679831862;0.679498494;0.679116249;0.678944945;0.67839849;0.678040206;0.67803371;0.677735567;0.67764771;0.677720129;0.677797496;0.678013206;0.678312898;0.678642273;0.678924501;0.678575993;0.677890003;0.677204669;0.67647922;0.67586422;0.675353289;0.674876928;0.674464226;0.674298108;0.674087644;0.672916532;0.672051013;0.671597898;0.671349823;0.67122215;0.671180844;0.671157897;0.671064734;0.670868099;0.670560837;0.670227051;0.670137882;0.669929922;0.669596553;0.66928798;0.669243217;0.669065297;0.668715417;0.668572724;0.668208301;0.667827904;0.667612374;0.667206764;0.667101085;0.667039931;0.666432142;0.665979803;0.665558219;0.665097833;0.664803386;0.664302349;0.663804471;0.663586974;0.663306773;0.662872851;0.662360132;0.661964953;0.661303759;0.660688758;0.660321951;0.659788907;0.659172654;0.658544123;0.657997549;0.65776062;0.657417178;0.656826079;0.656310618;0.655983031;0.655611098;0.654999435;0.654522657;0.654052556;0.653665841;0.653538406;0.652961552;0.652348936;0.652003527;0.651621163;0.650994301;0.650467575;0.650387645;0.649654865;0.648941517;0.648566425;0.6482988;0.647647083;0.646965504;0.646577179;0.646036029;0.645712912;0.645307481;0.644293785;0.643878996;0.643547475;0.642981052;0.642519116;0.642074704;0.641530931;0.640866518;0.640554011;0.640108585;0.639454365;0.638887525;0.638434947;0.637978852;0.637428761;0.636804163;0.636395633;0.635923564;0.635035336;0.63454175;0.634030938;0.633371055;0.632852852;0.6324175;0.631869733;0.631152987;0.630748391;0.630169868;0.629530132;0.629205227;0.628644407;0.628124833;0.627716482;0.627028644;0.626358211;0.625767291;0.625225902;0.624648392;0.62407136;0.623495877;0.6229074;0.622528613;0.621930361;0.62103796;0.620674908;0.619986415;0.619147956;0.618624389;0.618453264;0.617805779;0.616796255;0.616401076;0.615927815;0.615176737;0.614243388;0.613700151;0.613161027;0.612418413;0.611462712;0.610993445;0.610504329;0.60976094;0.608938754;0.608334303;0.607869506;0.607361197;0.606583297;0.605842233;0.605140805;0.604362786;0.603706658;0.602889657;0.601995409;0.601584554;0.600857794;0.599949181;0.599194407;0.598869264;0.598300338;0.597421587;0.596528172;0.595815122;0.595062256;0.594186008;0.59334892;0.592744529;0.592156768;0.591380656;0.590563476;0.589979231;0.589418292;0.588468909;0.587427258;0.586599469;0.586047113;0.585529268;0.584845841;0.584032416;0.583228588;0.58267808;0.58197391;0.581125736;0.580357909;0.579610646;0.579023302;0.578455746;0.577425778;0.576640964;0.576069713;0.575525522;0.574934959;0.574188292;0.573355556;0.572604299;0.572165072;0.571362376;0.570236385;0.569635808;0.56877023;0.567985117;0.567523897;0.566874027;0.566064537;0.565202534;0.564468324;0.564175665;0.563642383;0.562718213;0.561796248;0.561057687;0.560393929;0.559690475;0.558933675;0.558195949;0.557483912;0.556771457;0.556000054;0.555270612;0.554702759;0.55435437;0.553722799;0.553027451;0.552432418;0.551904798;0.551243126;0.550487816;0.549696207;0.548727691;0.548080325;0.547713161;0.547302365;0.546548784;0.545901835;0.545399427;0.5446738;0.544066966;0.543418229;0.542627156;0.541854918;0.540979683;0.540239871;0.539760172;0.53888905;0.538195729;0.537745357;0.537286162;0.536704421;0.535809278;0.534772038;0.534118235;0.533578873;0.532936692;0.532116711;0.531305969;0.530656576;0.529988945;0.52915287;0.528601289;0.527913749;0.527095973;0.52641809;0.525975108;0.525344729;0.524483621;0.523780882;0.522963941;0.522440195;0.522241592;0.521514118;0.520735383;0.520059764;0.519487381;0.518776;0.518352807;0.517995298;0.517247319;0.516267955;0.515697658;0.515465736;0.514913142;0.514250994;0.513462424;0.512662649;0.51216203;0.511705518;0.510956287;0.509837508;0.50884974;0.508297324;0.507863045;0.507174313;0.506621897;0.505997002;0.50533247;0.504750311;0.504036605;0.503252923;0.502466321;0.501711011;0.500817835;0.500062585;0.499551952;0.499073029;0.49820739;0.49744913;0.497084618;0.496578783;0.495785624;0.494888455;0.494136602;0.493617564;0.492945343;0.492113799;0.49126792;0.490358055;0.489578575;0.488940626;0.488331974;0.487720162;0.487304181;0.486985683;0.486407965;0.485623032;0.484707713;0.483865619;0.483407885;0.482951492;0.482435435;0.481858432;0.481208712;0.48058936;0.48017922;0.479917794;0.479184002;0.478208244;0.477290541;0.476691127;0.476461679;0.476054162;0.475337148;0.474429309;0.473570615;0.472800821;0.472013265;0.471126944;0.47061348;0.470189959;0.469609261;0.468758672;0.4679434;0.467152596;0.466432154;0.465875447;0.465475649;0.464911014;0.464088678;0.463223398;0.462756425;0.462286115;0.461567283;0.460727721;0.460174352;0.459376484;0.458323509;0.457879364;0.457590073;0.457076371;0.456252873;0.455472291;0.454909414;0.454415381;0.453884631;0.453438342;0.452731222;0.452150494;0.451895475;0.451477349;0.450891614;0.450174779;0.449472368;0.449082345;0.448886603;0.448721379;0.448410273;0.447785199;0.447588474;0.447537214;0.447235435;0.44674021;0.446494699;0.44615972;0.445447654;0.444719344;0.444126487;0.44378081;0.443575323;0.44302547;0.442335874;0.441500187;0.440679848;0.440466553;0.440000206;0.439240485;0.438420027;0.437814921;0.437273264;0.436565161;0.435629576;0.434749186;0.433870047;0.433425605;0.433258593;0.432169497;0.431097895;0.430204213;0.429437071;0.428684145;0.428111523;0.427473843;0.426748216;0.426249981;0.425684184;0.424799949;0.423681349;0.422753155;0.422220409;0.421332598;0.42013678;0.419422895;0.418884635;0.418299466;0.417527527;0.425167382;0.424537212;0.423841178;0.423267007;0.422627449;0.421958834;0.421289772;0.420620382;0.419971883;0.419263184;0.418662816;0.418240726;0.417604834;0.416827798;0.416202456;0.415519655;0.414892673;0.414410502;0.413954228;0.413361102;0.412685812;0.412067503;0.411435395;0.410813332;0.410213321;0.409609914;0.408991039;0.408377707;0.407787561;0.407165915;0.406502306;0.405905515;0.405253857;0.404618651;0.404024452;0.403378099;0.40272671;0.402072847;0.401418567;0.400764734;0.400076956;0.399318606;0.398667485;0.398010164;0.397402287;0.39688766;0.396421492;0.395820796;0.395195216;0.394551098;0.393914849;0.393330604;0.392764121;0.392180145;0.391614765;0.391000092;0.390338302;0.389728785;0.389142454;0.388532251;0.387941897;0.387304813;0.38671419;0.386100382;0.385505766;0.384975851;0.38437289;0.383745402;0.383162558;0.382578611;0.382017016;0.381495476;0.380963475;0.380434215;0.379908144;0.379385024;0.378876656;0.37837863;0.377854794;0.377346933;0.376844019;0.376288921;0.375752985;0.375280768;0.374790817;0.374280661;0.373807609;0.373305202;0.372736216;0.372215033;0.371707708;0.371225357;0.370769531;0.370348245;0.369938582;0.369524032;0.36910516;0.368660897;0.368177474;0.367736071;0.367287934;0.366836578;0.366434455;0.365996748;0.365564227;0.365130186;0.364693671;0.364255905;0.363854736;0.363433272;0.363040537;0.362632215;0.36218521;0.361761183;0.36132282;0.360930353;0.360592723;0.360265493;0.359919876;0.359562486;0.359223038;0.358868182;0.358561754;0.358289331;0.358068168;0.357863367;0.35770154;0.357543141;0.357388258;0.357251525;0.357130498;0.357051939;0.357058257;0.357156932;0.357287794;0.357455283;0.357688367;0.357936323;0.358188331;0.358485997;0.358834952;0.359205484;0.359617174;0.360025376;0.36042881;0.360773087;0.361056566;0.361343473;0.36160177;0.361822456;0.362010062;0.362159461;0.362272888;0.362339437;0.362360567;0.362337947;0.362266302;0.362144947;0.361989796;0.36176455;0.361542612;0.361292005;0.361047924;0.360774845;0.360490501;0.360166013;0.359810859;0.359453559;0.359075069;0.358701825;0.358330458;0.357965916;0.357608438;0.3572478;0.356889695;0.356531471;0.356161088;0.355811417;0.355469495;0.355140507;0.354817361;0.354519933;0.354241073;0.353944778;0.3536461;0.353303432;0.352929771;0.352580488;0.352235019;0.351900369;0.351559997;0.35122931;0.350870192;0.350510716;0.350115359;0.34968707;0.349267006;0.348822087;0.348383933;0.347940356;0.347514272;0.34708792;0.34665671;0.346247762;0.345816582;0.345355123;0.344882101;0.344379425;0.343838274;0.343302459;0.342739373;0.342194349;0.341656238;0.341107011;0.340567201;0.340009153;0.339434266;0.338853836;0.338270128;0.337667406;0.337046653;0.336429179;0.335766584;0.335110009;0.334496617;0.333885491;0.333307266;0.332784325;0.332232475;0.331683785;0.331128746;0.33055678;0.330019116;0.329487205;0.32897228;0.328495175;0.32800281;0.327512145;0.327020884;0.32650885;0.326032639;0.325592548;0.325129151;0.324680239;0.324213088;0.323756784;0.323277503;0.32282722;0.322409749;0.321964592;0.321507096;0.321058363;0.320585489;0.320158303;0.319754958;0.319357991;0.318997473;0.318624377;0.318258286;0.317879915;0.317481011;0.317106217;0.316734433;0.316363007;0.316025048;0.315714866;0.315412045;0.315134436;0.314839005;0.314537138;0.314269722;0.314014584;0.313756585;0.313526183;0.313287914;0.313023716;0.312793881;0.312603056;0.312390417;0.312182248;0.311968893;0.311723888;0.311517119;0.311321825;0.311145812;0.311000109;0.310859829;0.31074205;0.310639381;0.310549796;0.310481757;0.310419053;0.310358733;0.310326517;0.310316175;0.310310841;0.310317755;0.3103441;0.310381114;0.310434014;0.310511589;0.310594589;0.310677558;0.31078589;0.310889184;0.311046422;0.311233014;0.311457157;0.311741918;0.312034994;0.312336713;0.312656879;0.312997222;0.313335598;0.313730121;0.314179987;0.314605504;0.315039963;0.315503061;0.315963089;0.316455901;0.31698069;0.317530721;0.318087906;0.318688303;0.319316089;0.319995701;0.320734739;0.321473598;0.322263956;0.323046505;0.32382822;0.324617177;0.32541883;0.326218933;0.327021867;0.32781294;0.32862255;0.329436481;0.330265075;0.33112216;0.331950009;0.332778007;0.3335917;0.334384799;0.335182846;0.335989505;0.336775482;0.337565988;0.338319093;0.33901757;0.339757591;0.340488106;0.341235727;0.342007279;0.342792898;0.343583763;0.344374895;0.345203489;0.346088499;0.347054213;0.348097563;0.349206954;0.350422323;0.351748526;0.353144318;0.354684204;0.356329203;0.358150661;0.360095024;0.362199128;0.364473134;0.366898209;0.369451523;0.372211605;0.375114679;0.378303468;0.381730139;0.385375023;0.389256448;0.393437177;0.397899121;0.402586609;0.407588124;0.412807882;0.41831252;0.423982978;0.42982015;0.435875773;0.442049831;0.44836542;0.454743862;0.461180747;0.467585891;0.474004894;0.480283797;0.486593306;0.492714286;0.498717129;0.504507124;0.510180891;0.515596867;0.520779669;0.525666177;0.530284524;0.534684896;0.538764894;0.542635858;0.546295106;0.549689174;0.552776039;0.555643857;0.558227956;0.560649872;0.562822938;0.564823329;0.566675067;0.56834352;0.569860876;0.571216762;0.572412729;0.573481798;0.574425042;0.575272977;0.576028824;0.576687276;0.577245414;0.577668786;0.578031361;0.578282297;0.578514516;0.578670561;0.57880944;0.578922033;0.578961313;0.578951001;0.578891218;0.578759372;0.578610897;0.578421593;0.578210592;0.577945828;0.577700317;0.577455699;0.577177584;0.576888144;0.576593816;0.576266885;0.575938582;0.57563138;0.575282633;0.574879766;0.574485481;0.574075639;0.573613644;0.573122442;0.572583795;0.571977675;0.571341872;0.570674956;0.569955826;0.569182813;0.568320096;0.567367911;0.566371262;0.56532979;0.564236403;0.563065052;0.561838388;0.560548186;0.559182644;0.557758808;0.556254923;0.554756522;0.55320245;0.55164057;0.55007565;0.548489273;0.546868324;0.545227528;0.543573141;0.541904628;0.540210068;0.538501203;0.536774814;0.535063803;0.533339262;0.531607449;0.529883146;0.528141379;0.526380956;0.524623692;0.522850871;0.521104932;0.519387662;0.51762414;0.515853167;0.514092267;0.512333632;0.510585845;0.508820832;0.507078707;0.505318284;0.503525853;0.501748741;0.49995026;0.498179317;0.496392339;0.494601756;0.492883265;0.491167009;0.489427477;0.48767212;0.485907376;0.484134644;0.482382119;0.480659366;0.478995144;0.477311939;0.475627393;0.473942012;0.47225666;0.470601797;0.46896866;0.467317671;0.46568352;0.464054286;0.462389678;0.460766613;0.459175438;0.457589239;0.456019968;0.454456002;0.45289728;0.451366216;0.449839205;0.448339969;0.446863264;0.445413858;0.444010586;0.442581743;0.441162795;0.439761281;0.438336074;0.436945796;0.43558991;0.434240222;0.432925016;0.431580335;0.430220187;0.428884566;0.427539051;0.426210225;0.42490983;0.42361173;0.422305018;0.421014041;0.419712514;0.418480933;0.417293489;0.416115463;0.414988428;0.413855374;0.412717938;0.411619335;0.410519511;0.409449637;0.408409417;0.407369494;0.406359583;0.405350924;0.404358089;0.403383523;0.402418375;0.401507527;0.400604576;0.399675995;0.398762316;0.397850931;0.396924168;0.39601475;0.395111978;0.394221693;0.393349499;0.392477214;0.391624689;0.390790254;0.38997668;0.389163285;0.388338685;0.387518913;0.386680484;0.385837615;0.385013729;0.384198338;0.383403212;0.382627964;0.381866366;0.381118834;0.380386919;0.379658282;0.378946126;0.378267258;0.377588868;0.376918465;0.376252383;0.375588924;0.374946117;0.374318153;0.373696566;0.373073012;0.372478217;0.371899426;0.371323764;0.370789051;0.370255411;0.369698644;0.369162947;0.368635863;0.368129075;0.367643654;0.367133081;0.366626233;0.366132796;0.365623564;0.36513564;0.364676178;0.36421603;0.363751054;0.363287508;0.362832874;0.362398237;0.361967772;0.361534476;0.361123592;0.36071068;0.360272646;0.359882444;0.359531462;0.359163225;0.358798563;0.358449489;0.358094752;0.357780188;0.357495904;0.357216626;0.356955439;0.356723666;0.356499583;0.356309742;0.356162608;0.356017858;0.355888039;0.355761081;0.355655432;0.355583459;0.355509967;0.355463028;0.355424523;0.355390459;0.355414033;0.355470508;0.355520129;0.355578721;0.35565415;0.355752975;0.355916381;0.356124341;0.356340438;0.356590867;0.356856406;0.357120097;0.357450813;0.357823402;0.358211428;0.358643711;0.359104931;0.35964784;0.36024037;0.36084044;0.361493498;0.362153471;0.362824261;0.363553017;0.364280432;0.365013808;0.36573413;0.366476059;0.367194086;0.367904305;0.368577272;0.369219869;0.36985153;0.370426863;0.371026754;0.371640801;0.372240722;0.372840464;0.373431861;0.374004871;0.37458536;0.375152886;0.375747502;0.37634474;0.376970053;0.377621144;0.378292829;0.378988534;0.3796992;0.380440772;0.381178051;0.381919771;0.382681549;0.383467764;0.38423574;0.385017782;0.385781854;0.386527091;0.387269408;0.388030946;0.388734132;0.389420778;0.39004755;0.390608191;0.391168654;0.391705424;0.39219293;0.392683774;0.393056244;0.393331915;0.393593788;0.393768817;0.393968731;0.394152015;0.39433217;0.394492745;0.39467144;0.394842625;0.395048887;0.395246238;0.39555797;0.395913959;0.396395266;0.396912873;0.397481382;0.39807722;0.398709893;0.399419188;0.400233656;0.401042104;0.401911199;0.40277648;0.403638065;0.40451473;0.405435443;0.406318784;0.40720892;0.408052504;0.408889323;0.409644514;0.410336554;0.410986871;0.411558867;0.412112206;0.412638038;0.413114369;0.413513273;0.413943797;0.414346039;0.41476652;0.415213943;0.415635139;0.416038513;0.416448355;0.416855097;0.417258173;0.417662352;0.4180502;0.418436944;0.418795437;0.419143468;0.419450372;0.419719696;0.420017123;0.420321435;0.420591652;0.42086044;0.421102732;0.421302289;0.421572685;0.421757877;0.421877295;0.421985388;0.422013313;0.422070533;0.422146738;0.422198147;0.422225267;0.422266722;0.422313809;0.437132776;0.437135726;0.43710953;0.437050462;0.437003404;0.436982244;0.436914682;0.436861008;0.436738849;0.436574668;0.436361939;0.436146259;0.435914218;0.435620248;0.435295701;0.434941888;0.434427559;0.434070051;0.433761865;0.433487713;0.433234513;0.433057517;0.43287468;0.432612538;0.432527751;0.432582706;0.432598501;0.432634562;0.432769984;0.432903439;0.43306452;0.433363587;0.433831781;0.434240729;0.434644073;0.435176313;0.43569997;0.436365485;0.437148184;0.438034594;0.439031571;0.440109491;0.441313773;0.442657024;0.444096744;0.445598096;0.447276741;0.449106544;0.450986981;0.453153878;0.455454022;0.457789719;0.460358888;0.46312657;0.465997577;0.469132036;0.472563356;0.476131439;0.479893804;0.483814061;0.48791033;0.49224484;0.496847183;0.501744092;0.506773293;0.512038112;0.517559946;0.52330941;0.52924186;0.535458744;0.542094529;0.549072087;0.556227624;0.563640296;0.571206033;0.578880608;0.586724699;0.59447521;0.602339447;0.610300422;0.617959261;0.625566244;0.632956028;0.640018463;0.646969736;0.653601527;0.65996784;0.666105509;0.672017634;0.677454889;0.68263644;0.687373281;0.691581368;0.695454419;0.698978126;0.702212989;0.705255687;0.708085716;0.710661948;0.712944984;0.714968145;0.716832459;0.71846813;0.71986717;0.72113502;0.722223103;0.723242879;0.724195302;0.724989355;0.725670218;0.726267993;0.726690948;0.726991355;0.727309287;0.727559984;0.727783382;0.727938473;0.727958977;0.727990031;0.728053153;0.728114009;0.728194833;0.728279412;0.728406549;0.728412867;0.728470862;0.728505671;0.728418946;0.728380382;0.728350878;0.728274822;0.728199244;0.728211462;0.728083909;0.727856874;0.727627456;0.727407753;0.727161705;0.726931632;0.726595938;0.726137221;0.725647628;0.725222826;0.724764228;0.724399328;0.72419709;0.723845661;0.723463535;0.723073661;0.722596943;0.722045362;0.721543968;0.720979035;0.720423102;0.719841659;0.719272554;0.718676567;0.718153596;0.717662692;0.717153132;0.716712654;0.716238618;0.71559608;0.714960575;0.714351892;0.713679492;0.713053286;0.712516367;0.711906135;0.711280167;0.710608959;0.709952891;0.709180534;0.708293557;0.707416654;0.706530809;0.70559746;0.704664111;0.703749835;0.702813506;0.701808572;0.700865865;0.699958503;0.699032903;0.69811821;0.697202444;0.696238637;0.695386052;0.69449091;0.693600893;0.692675352;0.691733956;0.690810144;0.689926088;0.688937068;0.687868118;0.686872363;0.685818732;0.684794188;0.683870792;0.682930112;0.681896806;0.680797279;0.679703236;0.678527296;0.677431941;0.676312804;0.675272286;0.674371481;0.673353672;0.672327578;0.67128396;0.67015022;0.669035733;0.667978048;0.666929781;0.665956914;0.66505444;0.664129674;0.663251281;0.662370503;0.661471069;0.660609722;0.659825802;0.658977449;0.658151865;0.657258868;0.656320989;0.65529722;0.654353619;0.653388321;0.652451336;0.651584983;0.650648713;0.649651468;0.648712456;0.647751153;0.646845639;0.646012485;0.645158887;0.644314468;0.643502772;0.642644942;0.641743124;0.640914679;0.640107274;0.639288783;0.638482928;0.637718916;0.637009263;0.636216879;0.635448575;0.634641349;0.633771956;0.632860541;0.631921172;0.630967498;0.630018353;0.629012704;0.628029466;0.627101898;0.626099288;0.625004947;0.623982489;0.622977376;0.621962786;0.6210168;0.619989693;0.618839741;0.617787838;0.616760135;0.615742445;0.614702404;0.613739669;0.612681746;0.611501098;0.610433936;0.609401226;0.608367026;0.607352972;0.606368899;0.605359793;0.604428709;0.603598654;0.602737844;0.60188514;0.601079345;0.600245476;0.599376142;0.59856379;0.597782135;0.596995115;0.59625417;0.595468223;0.594664335;0.593857288;0.593022406;0.592200875;0.591420591;0.590577602;0.58967489;0.588785768;0.587962031;0.587133288;0.586325049;0.585595608;0.58482337;0.583993316;0.583235323;0.58253473;0.581815064;0.581090271;0.580399454;0.579757452;0.579075038;0.57832849;0.577688158;0.577143312;0.576499045;0.575880468;0.575344205;0.574751079;0.57405287;0.573470712;0.5729509;0.572435319;0.571948707;0.571473479;0.571056604;0.570595801;0.570083499;0.569636583;0.569187701;0.568781257;0.568442166;0.568120658;0.567770302;0.567441344;0.567150235;0.566864133;0.566619873;0.566454232;0.566237807;0.566042304;0.565807462;0.565535784;0.565274954;0.564936578;0.564708173;0.564568102;0.564382732;0.564225376;0.56409657;0.563893795;0.563695371;0.563589871;0.563544095;0.563504696;0.563570321;0.563503623;0.563376486;0.563279212;0.563140094;0.563013673;0.562919438;0.562803805;0.562681437;0.562516928;0.562305212;0.562127531;0.561947823;0.561739981;0.561513782;0.561367273;0.561142087;0.560842812;0.560565948;0.560289025;0.559984326;0.559637368;0.559343517;0.559045494;0.55877167;0.558578134;0.55827719;0.557883799;0.557591259;0.557293653;0.55701071;0.556820154;0.55659163;0.556349218;0.556086183;0.555729449;0.555405855;0.555075705;0.55468744;0.554371595;0.554111123;0.553876996;0.55367285;0.553455055;0.55328697;0.553099334;0.552868664;0.552674532;0.552519917;0.552360117;0.55213654;0.552041113;0.552062809;0.552019835;0.552018702;0.552027643;0.55199343;0.551984608;0.552046835;0.552114844;0.55213517;0.552162111;0.552255273;0.552393198;0.552496672;0.552633643;0.552775025;0.552874625;0.553022683;0.553260744;0.553419352;0.553472102;0.553689241;0.553890228;0.554229438;0.554830432;0.555286467;0.555719852;0.5562011;0.556550026;0.55708313;0.557824373;0.558501065;0.559207559;0.559983134;0.560735285;0.561454415;0.562337339;0.563387871;0.564273357;0.5652017;0.566063046;0.566768169;0.567636192;0.568572521;0.569481134;0.570414603;0.571399033;0.572427392;0.573436141;0.574475706;0.575517297;0.576493621;0.577558458;0.578751802;0.579875648;0.581025362;0.582123101;0.583209395;0.584202468;0.585118413;0.586020589;0.586841583;0.587619364;0.588508844;0.589391828;0.590227127;0.59102428;0.591847301;0.59259516;0.593456209;0.594393551;0.595344126;0.596361578;0.597283661;0.598196149;0.599105597;0.599951506;0.600825787;0.6017133;0.602633357;0.603526711;0.604505897;0.605571985;0.606623828;0.607762694;0.608798385;0.609760523;0.610783696;0.611740887;0.612775505;0.613921642;0.615042686;0.616315186;0.617357433;0.618220866;0.61912322;0.619924903;0.620653093;0.621400535;0.622158229;0.622432172;0.622784078;0.622846484;0.62258327;0.622552693;0.622414529;0.622421622;0.622576773;0.622660756;0.622734249;0.622854292;0.622980773;0.623177052;0.623373866;0.623713851;0.62412113;0.624676585;0.625424743;0.62613982;0.627012432;0.627766073;0.628378928;0.629225194;0.630147755;0.631115973;0.632243156;0.633404672;0.634606719;0.635820985;0.637239456;0.638458371;0.639577031;0.640651762;0.641557872;0.642556787;0.643670917;0.64456898;0.645450115;0.64616549;0.646546245;0.647028089;0.647487402;0.647908628;0.648308396;0.648697078;0.649051964;0.649371564;0.649574995;0.649925113;0.650343955;0.650746763;0.651269376;0.651774228;0.652119875;0.652644753;0.653365195;0.654094398;0.654628038;0.655155599;0.655696094;0.655996621;0.656643033;0.657547891;0.658314705;0.65910852;0.659934342;0.660901248;0.661442339;0.661796689;0.662273049;0.662394464;0.662950456;0.663815141;0.664651275;0.66575247;0.666322291;0.666690826;0.667245388;0.667413235;0.668042541;0.669231772;0.669898212;0.670213759;0.671072841;0.672131658;0.672970772;0.6742028;0.674908161;0.675025225;0.675475478;0.675821304;0.676495254;0.677343965;0.678215623;0.679448068;0.680311263;0.681146324;0.681687772;0.68163836;0.682377517;0.683464408;0.684101999;0.685011983;0.685764968;0.685990989;0.686435461;0.687298715;0.687700629;0.687465608;0.68788904;0.688568056;0.689175963;0.690146983;0.690788805;0.691113293;0.691822231;0.692744553;0.693277717;0.693928003;0.694220483;0.693685353;0.694348872;0.69547087;0.696426034;0.698087215;0.699159145;0.699837327;0.700769901;0.701915026;0.702456653;0.70250237;0.703029513;0.703385115;0.704095006;0.705147624;0.70636791;0.707899868;0.708885372;0.710167885;0.710738122;0.710167706;0.710767388;0.711856067;0.712318182;0.713147759;0.713312209;0.712277651;0.712742209;0.713913321;0.714642286;0.716025233;0.71724385;0.716991663;0.716583967;0.71516788;0.714390457;0.714361846;0.714906335;0.717313826;0.719163775;0.719930232;0.721305728;0.721332967;0.720236659;0.72111845;0.722442508;0.72451061;0.72802639;0.728821278;0.727680206;0.726909876;0.724560797;0.723426938;0.722017705;0.722458899;0.725660682;0.727137446;0.730354905;0.731106162;0.727994859;0.727243423;0.726454914;0.725842178;0.726150036;0.726636469;0.727771938;0.727900982;0.727605641;0.728095353;0.727652431;0.7284621
0.651884854;0.644298434;0.612876713;0.606528223;0.615099788;0.629150748;0.634742618;0.621562421;0.608191788;0.612135351;0.620187104;0.59171766;0.596451998;0.601633489;0.586781859;0.589959085;0.5974648;0.600958049;0.596841991;0.591684461;0.589780271;0.59144181;0.59404999;0.591175675;0.591120839;0.594251931;0.590066075;0.589161038;0.589596391;0.588953853;0.59007746;0.592055857;0.592310071;0.58939749;0.590921223;0.590345085;0.587686837;0.588620722;0.591202021;0.592321277;0.590648353;0.587901354;0.588620305;0.589064777;0.585986316;0.587454915;0.587852061;0.586356282;0.585320115;0.586006224;0.586862803;0.586714208;0.585338414;0.58501178;0.585283816;0.585209131;0.584238946;0.58444643;0.585018337;0.584271669;0.583771408;0.583712339;0.583896697;0.58388263;0.584451079;0.584101081;0.582552433;0.582997084;0.583389044;0.58353126;0.583592176;0.582352936;0.58125335;0.580946028;0.581249714;0.581160843;0.581274748;0.581525207;0.580021858;0.579856992;0.580406189;0.580146611;0.578859746;0.57838124;0.578790426;0.578908622;0.579054415;0.578617752;0.577701628;0.577784479;0.57703948;0.576344848;0.576824784;0.577590764;0.577424109;0.576646566;0.576548576;0.576551497;0.57638675;0.576064527;0.576006651;0.575716674;0.57547915;0.575553775;0.575131953;0.574746668;0.574664474;0.574850142;0.57449019;0.574162722;0.574224293;0.574294329;0.573976874;0.57359606;0.573568821;0.573549271;0.573235691;0.572794735;0.572730899;0.572508097;0.572304726;0.572227001;0.571968257;0.571818173;0.571631372;0.571237743;0.571212173;0.571255803;0.571198821;0.571050227;0.570692599;0.570185721;0.569708109;0.569639683;0.569748282;0.569706023;0.569257379;0.568937063;0.568710566;0.568504751;0.568261921;0.567990661;0.567619205;0.567158341;0.566892505;0.566871464;0.566749513;0.566105604;0.565974057;0.565865755;0.565520406;0.565292954;0.564971924;0.564567387;0.564207017;0.564254642;0.564101219;0.56367594;0.56334424;0.563316047;0.563196957;0.562806606;0.562563956;0.562480628;0.562426209;0.562241554;0.561986864;0.561772048;0.561659575;0.561652005;0.561536372;0.561343729;0.561143279;0.560956001;0.560715199;0.560439706;0.560200632;0.56012702;0.560013235;0.559701383;0.559135795;0.558700085;0.558381736;0.558094561;0.557958901;0.557831407;0.557517827;0.556876361;0.556795895;0.556783795;0.556428134;0.555810034;0.55583936;0.556081831;0.555811465;0.555779219;0.555737734;0.555500209;0.555020571;0.554668069;0.55443275;0.554238617;0.554110229;0.553916693;0.553667605;0.553438008;0.553087711;0.552938879;0.553007483;0.552763224;0.552678406;0.552765489;0.55291146;0.553080082;0.553427041;0.553851604;0.554022968;0.553915143;0.553566217;0.553027689;0.552275181;0.551644027;0.55110985;0.550528586;0.550177693;0.550048232;0.549890101;0.549182236;0.548682272;0.548510909;0.548538685;0.548447609;0.548397839;0.548356712;0.548169017;0.547991574;0.547778904;0.54751879;0.547324836;0.54711175;0.546823442;0.546460688;0.54626447;0.546088219;0.545912683;0.545874178;0.545610726;0.545333564;0.545236647;0.545045853;0.545032203;0.544941962;0.544322729;0.543923616;0.543598294;0.543275654;0.543220103;0.542925;0.542533219;0.542310834;0.541997969;0.541718245;0.541472852;0.54113692;0.540702581;0.540354609;0.54014951;0.539714158;0.539285243;0.538906157;0.538555324;0.538452923;0.538220227;0.537751257;0.537395775;0.537095129;0.536804795;0.536478698;0.536078036;0.535738349;0.535520017;0.535390139;0.534990609;0.534567297;0.534297526;0.534010231;0.5335567;0.533183277;0.533118725;0.532450736;0.531859279;0.531615973;0.531401396;0.530976772;0.530596614;0.530425727;0.529950142;0.529580235;0.529257298;0.52871114;0.528431177;0.528150678;0.527730584;0.527381361;0.527109265;0.526785612;0.526344299;0.526225686;0.525963128;0.525472403;0.525022507;0.524675012;0.524422407;0.524150729;0.523498833;0.523180306;0.52294451;0.522323549;0.522215068;0.52203095;0.521561027;0.521154106;0.520767927;0.520302415;0.519747913;0.519434273;0.519055784;0.518678129;0.518512487;0.518045604;0.517662764;0.517473876;0.517018437;0.516439915;0.515989423;0.51579833;0.515407205;0.515015781;0.514623106;0.514094949;0.513758302;0.513382912;0.512897789;0.512737691;0.512263596;0.511633217;0.51125282;0.511280179;0.510854781;0.510019064;0.50966543;0.509300768;0.508806944;0.508242309;0.507936954;0.507606506;0.507060945;0.506284654;0.506009698;0.505797327;0.505342901;0.504609287;0.504027069;0.503606141;0.50322634;0.502700567;0.502135158;0.501614213;0.50119853;0.500885665;0.500350475;0.499639869;0.499273807;0.498713613;0.498033762;0.497500539;0.49757272;0.497251868;0.496497631;0.495800108;0.495232522;0.494581521;0.493820548;0.493214697;0.492943734;0.492631346;0.491994321;0.491474211;0.491169631;0.490816087;0.490026265;0.48917082;0.48851186;0.488104284;0.48776269;0.487175673;0.486513406;0.486004502;0.485663027;0.485147744;0.484511018;0.483997345;0.483491957;0.483082741;0.482641459;0.481772125;0.481173038;0.48078993;0.480403006;0.479873747;0.47929579;0.478717953;0.478193253;0.478015214;0.477508515;0.476670682;0.476279378;0.47574079;0.475239873;0.474908888;0.474414527;0.473690957;0.472874582;0.472222626;0.47209543;0.471788108;0.471147358;0.470572561;0.470060557;0.469536722;0.468959063;0.468377978;0.467859179;0.467333466;0.46674335;0.466273904;0.46582678;0.465490967;0.465401858;0.464934081;0.464363068;0.463900477;0.463514924;0.46306479;0.462572485;0.46206075;0.461379945;0.460956544;0.460851103;0.460839808;0.46024248;0.459632367;0.459177315;0.458597481;0.458165377;0.457738161;0.457189798;0.456549168;0.455866635;0.455424458;0.455303252;0.454648942;0.454201162;0.454012156;0.453731626;0.453356445;0.452684104;0.451841205;0.451297075;0.450940728;0.450569242;0.450046778;0.44940877;0.448945016;0.448514968;0.447955281;0.447630584;0.447218299;0.446658105;0.446100235;0.445875913;0.445522487;0.444916397;0.444364041;0.44368878;0.443365097;0.44342941;0.442928076;0.442362338;0.441889971;0.441524535;0.441088915;0.440894485;0.440710843;0.440141976;0.439447433;0.439126253;0.439082652;0.43873772;0.43825677;0.437626243;0.436967224;0.436592221;0.436410308;0.435949534;0.43503651;0.434352547;0.43398276;0.43368423;0.433227241;0.433004916;0.432651818;0.432180107;0.431780905;0.431303591;0.430776;0.430258572;0.429798216;0.429105312;0.42852512;0.428200603;0.427876204;0.427240491;0.426694721;0.426474631;0.426164985;0.425573617;0.424888521;0.424378365;0.424168169;0.423676193;0.422995418;0.422439754;0.421799839;0.421345532;0.42100504;0.42052108;0.419987172;0.41980195;0.419818312;0.419433892;0.418885589;0.418169111;0.417477041;0.417232722;0.417057157;0.416812986;0.416447103;0.415969849;0.415572941;0.415503621;0.415629327;0.414944321;0.414151371;0.413504452;0.413098544;0.413004726;0.412798703;0.412309349;0.411581904;0.410958111;0.410438478;0.409843624;0.409075826;0.408950239;0.408831656;0.408423364;0.407785267;0.407203704;0.406650424;0.406185061;0.405929118;0.405801594;0.405375212;0.40464896;0.404073387;0.403714567;0.403368324;0.402907312;0.402368993;0.401927531;0.401291788;0.400514066;0.400184125;0.400105596;0.399819434;0.399163902;0.398527592;0.398149669;0.397868305;0.397534221;0.397210568;0.396681786;0.396305591;0.396223724;0.395919561;0.395382792;0.394811362;0.394401073;0.394191325;0.394243568;0.394268572;0.394017607;0.393534422;0.393480986;0.393591493;0.393488646;0.39320454;0.393028945;0.392769724;0.392269373;0.391773432;0.391353339;0.391179651;0.391173273;0.390706122;0.390207678;0.389723688;0.389315397;0.389288068;0.389014035;0.38848868;0.38789618;0.387408733;0.38696748;0.386462897;0.385856032;0.385267705;0.384690315;0.384427756;0.384370327;0.383685261;0.383020908;0.382265657;0.381481886;0.381156504;0.380861968;0.380314499;0.379675567;0.379533798;0.379185557;0.378405541;0.377460241;0.376960874;0.37652275;0.375887722;0.375200272;0.37486279;0.37442717;0.37419045;0.373943657;0.380639195;0.380206734;0.379804105;0.379360259;0.378952265;0.378611058;0.378183722;0.377687156;0.377278984;0.37685892;0.376485169;0.37622273;0.375861287;0.37548542;0.375089079;0.374584317;0.374173015;0.373816848;0.373427361;0.373103261;0.372765809;0.37242347;0.372085541;0.371715099;0.371309429;0.370945841;0.370586038;0.370204121;0.369859844;0.369478911;0.36905092;0.368610173;0.368225455;0.36790961;0.367589116;0.367235005;0.366844833;0.366398841;0.365954369;0.365461588;0.365053266;0.364672184;0.364298135;0.363982141;0.36363095;0.363270521;0.362885058;0.362505287;0.362161666;0.361793965;0.361384213;0.36096862;0.360559374;0.360164046;0.359765649;0.359385878;0.359033883;0.358657092;0.358286679;0.357914299;0.357545614;0.357134253;0.356781662;0.356417716;0.356025636;0.35569185;0.355363011;0.354945481;0.354502797;0.354088813;0.353713572;0.353341401;0.353003085;0.352729559;0.35241577;0.352101237;0.351771533;0.351396322;0.351052314;0.350733727;0.350381851;0.350018948;0.349704146;0.349383473;0.349047959;0.348763973;0.348477244;0.348190278;0.347898573;0.34760499;0.347301394;0.347048223;0.346776932;0.346489429;0.346220672;0.345934123;0.345664114;0.345442355;0.345224231;0.344992936;0.344721675;0.34440276;0.344137371;0.343907654;0.343675137;0.343436539;0.343220234;0.342967987;0.34271431;0.342474997;0.34225595;0.34204343;0.341789097;0.34152022;0.341264814;0.341038048;0.340842158;0.340655118;0.340488315;0.340298891;0.340083629;0.339919537;0.339772493;0.339642972;0.339525253;0.339437038;0.339331567;0.339233041;0.339193255;0.33917135;0.339159727;0.339191169;0.33924067;0.339335054;0.339489132;0.339670688;0.339874506;0.340089798;0.340325743;0.340563446;0.340795368;0.34107852;0.341398239;0.34171322;0.342037201;0.342329115;0.342571974;0.342811614;0.343045175;0.343279362;0.343462288;0.343587726;0.34373185;0.343861997;0.343932092;0.343982279;0.343999147;0.343931079;0.343883961;0.343848825;0.34377107;0.343662441;0.343567908;0.34342587;0.343248546;0.343066335;0.342873186;0.342683434;0.342520416;0.342358857;0.342155963;0.341967732;0.341764957;0.341584057;0.341426939;0.341248482;0.341058493;0.34087041;0.340646207;0.340475857;0.340334743;0.340224832;0.340081513;0.339933038;0.339755833;0.339536846;0.339354366;0.339187741;0.3390086;0.338841617;0.338642865;0.338420868;0.338210583;0.337999552;0.337767094;0.337521255;0.337284207;0.337023705;0.336781293;0.33655414;0.336335123;0.336117804;0.335883886;0.335668683;0.335457951;0.335229874;0.334990889;0.33471331;0.334391207;0.334089518;0.333765745;0.333453149;0.333165258;0.33284542;0.33251065;0.332164764;0.331803799;0.331433296;0.331031978;0.330653101;0.330285937;0.329905808;0.329513341;0.329126209;0.328751981;0.3283526;0.328012139;0.327720225;0.327406347;0.327122062;0.326796442;0.326435328;0.326111048;0.325782537;0.325465977;0.325172335;0.32488209;0.32458657;0.324306637;0.324048847;0.323793262;0.323567569;0.323302835;0.323040992;0.322757483;0.322491378;0.322214305;0.321946204;0.321688324;0.321436673;0.321173847;0.320933193;0.320716918;0.320497662;0.320284158;0.320073664;0.31986931;0.319667459;0.31947881;0.319274068;0.319054753;0.318851262;0.318639606;0.318439424;0.318254054;0.318088353;0.317921489;0.317757607;0.317609727;0.317471832;0.317344397;0.317235351;0.317119569;0.317006439;0.316901833;0.316802353;0.316702604;0.316628426;0.316520452;0.316393346;0.316265732;0.316102564;0.315969288;0.315839112;0.315730572;0.315642506;0.315564066;0.315511525;0.315494955;0.315440953;0.315375835;0.315352201;0.31531921;0.315318316;0.315373302;0.315404654;0.315429926;0.315463454;0.315493286;0.315550089;0.315614641;0.315694511;0.315794289;0.315912127;0.316020459;0.316178828;0.316397637;0.316601038;0.316819668;0.317061901;0.31728211;0.317474186;0.317721397;0.317976713;0.318270713;0.318609804;0.318940908;0.319289446;0.319646895;0.320014089;0.320385605;0.320765942;0.321157396;0.321535349;0.321961194;0.322406948;0.322886765;0.323426694;0.323948592;0.324490696;0.325029612;0.325574845;0.32609579;0.326631755;0.327179253;0.327740997;0.328307331;0.328864038;0.329432011;0.329985231;0.330524683;0.331068963;0.331610084;0.332155854;0.332710415;0.333240479;0.333784163;0.334285706;0.334734946;0.335214168;0.335668057;0.336155415;0.33668831;0.337193042;0.337690949;0.338200122;0.338698775;0.33919403;0.339732409;0.340308368;0.340928882;0.341614097;0.342338026;0.343122542;0.343995333;0.344926864;0.345938563;0.347016364;0.348214179;0.349491924;0.350871205;0.352377117;0.353942126;0.355582327;0.357317746;0.359096527;0.361072063;0.363169789;0.36541456;0.367816359;0.370392531;0.373125106;0.37601319;0.379090756;0.382299632;0.385718703;0.389193177;0.392789692;0.396554589;0.400359929;0.404233336;0.408122391;0.41202715;0.415919423;0.419822812;0.423630238;0.427459121;0.431141943;0.434731275;0.438206822;0.441592604;0.444850683;0.448010027;0.450966477;0.453785986;0.456445426;0.458896458;0.461224407;0.463398427;0.465443254;0.46734795;0.469087541;0.470652223;0.472134858;0.473460436;0.474686444;0.475855857;0.476898551;0.477818847;0.478643686;0.479389101;0.480081916;0.480704486;0.481234938;0.481666833;0.482034355;0.482384086;0.482677877;0.48291865;0.483124942;0.483287394;0.483365148;0.483462125;0.483564228;0.483599365;0.483596206;0.48356396;0.483461678;0.483389258;0.483309388;0.483232349;0.483163506;0.483078241;0.482979059;0.482877195;0.482773542;0.482661366;0.482555926;0.482418478;0.482264847;0.482084781;0.48189491;0.481702536;0.48151046;0.481285661;0.480999082;0.480665058;0.480275661;0.47986564;0.47945112;0.479019731;0.478547752;0.478017539;0.47745505;0.476847172;0.476216823;0.475577146;0.47488609;0.474154204;0.473394573;0.472593009;0.471772283;0.470922232;0.470050514;0.469160736;0.468239039;0.467272401;0.466319352;0.465348482;0.464367628;0.463384479;0.462394655;0.461392403;0.460379243;0.459354669;0.458344281;0.457333863;0.456301183;0.455275774;0.454224885;0.453136414;0.452063024;0.450958878;0.449913889;0.448913187;0.447884291;0.446885377;0.445864528;0.444800705;0.443751007;0.442701519;0.441653639;0.440627098;0.439592928;0.438539356;0.437500328;0.436456054;0.435397118;0.434362084;0.433357358;0.432367355;0.431368679;0.430373788;0.429379225;0.428364903;0.427374989;0.426399201;0.425463289;0.424477667;0.423479497;0.422477365;0.421434194;0.420440525;0.419494122;0.418491453;0.417468429;0.416475028;0.4154616;0.414462119;0.413485438;0.412520409;0.411541224;0.410596758;0.409696758;0.408791512;0.407881618;0.406998128;0.40613994;0.405279875;0.4044559;0.403590977;0.40267846;0.40182814;0.400984228;0.400152117;0.399376303;0.398577601;0.397765666;0.396960109;0.396164119;0.395359218;0.394537538;0.393733323;0.392934412;0.392144144;0.39136219;0.390585542;0.389779359;0.38904646;0.38836351;0.387690991;0.387038082;0.386381894;0.385704368;0.385034174;0.384395689;0.383786261;0.383162707;0.382540852;0.381936908;0.381322026;0.38072592;0.380160064;0.379584908;0.37900871;0.378427833;0.377837658;0.377248675;0.376658559;0.376090527;0.375530988;0.374964386;0.37443158;0.3739115;0.373374194;0.372856915;0.37234515;0.371849179;0.371355414;0.370835096;0.370336264;0.369809568;0.369282991;0.368796438;0.368287385;0.367818534;0.367338479;0.366842031;0.366402328;0.365919143;0.365458071;0.365046918;0.364601374;0.364187211;0.363775343;0.363336056;0.362932265;0.362527281;0.362121612;0.361737788;0.361338347;0.360957593;0.360586256;0.360210329;0.359862;0.359530509;0.359222353;0.358890116;0.358558714;0.358237892;0.357900262;0.357582539;0.357293129;0.356999457;0.356702685;0.356413007;0.356131405;0.35586223;0.355598509;0.355329365;0.35507521;0.354812562;0.354540676;0.35426113;0.353984773;0.35370636;0.35340324;0.353142053;0.352902412;0.352657616;0.352428287;0.35219419;0.351959527;0.351732343;0.351501405;0.351296067;0.351096809;0.350931555;0.350791752;0.35067153;0.350574642;0.350500196;0.35044077;0.350390285;0.350355744;0.350325674;0.350294679;0.350265056;0.350231409;0.350189805;0.350163281;0.350148618;0.350140154;0.350163788;0.350197613;0.350240856;0.350330114;0.350443214;0.350577146;0.35074693;0.350919962;0.351087898;0.351314783;0.351595789;0.351891875;0.352230042;0.352557987;0.35289523;0.353283763;0.353651494;0.354048103;0.354436576;0.354850799;0.355313987;0.355770618;0.356265515;0.356717676;0.357137322;0.357568651;0.35798794;0.358390898;0.358798832;0.359192789;0.359584808;0.359923154;0.360204428;0.360520929;0.360796541;0.36110273;0.361463696;0.361804754;0.362127781;0.36246869;0.362810224;0.363176316;0.363544911;0.363954544;0.364420772;0.364858568;0.365311384;0.365757823;0.366179287;0.36662513;0.367090344;0.367554724;0.368029982;0.36849615;0.368965924;0.369427919;0.369883448;0.370335221;0.37080735;0.371216178;0.371593475;0.371954113;0.37227872;0.372573674;0.372859269;0.373094738;0.373274595;0.373441905;0.373583525;0.373697966;0.373770565;0.37385577;0.373907119;0.374014378;0.374142915;0.374274433;0.374421805;0.374608338;0.374799997;0.375056297;0.375347495;0.375674754;0.376012594;0.376383156;0.376809835;0.377299935;0.377792954;0.378346652;0.378883868;0.379405528;0.379948378;0.380519778;0.381070077;0.381619155;0.382164568;0.382730067;0.383227617;0.383712113;0.38414219;0.38447684;0.384833753;0.385190547;0.385501146;0.385779053;0.386053652;0.386282474;0.386534542;0.386797845;0.387051523;0.387285918;0.387553573;0.387844622;0.388114631;0.388402253;0.388659716;0.388896555;0.389111429;0.389314473;0.389488071;0.389644593;0.389808565;0.389983088;0.390101105;0.39020431;0.39034012;0.390436739;0.390638381;0.390758634;0.39080587;0.390867919;0.390877455;0.390913516;0.390975565;0.391036928;0.391110748;0.391158998;0.391195446;0.406705946;0.406614423;0.406576723;0.406569809;0.406525761;0.406502724;0.406437576;0.4063555;0.406234056;0.406084657;0.405935824;0.405697316;0.40545705;0.405068666;0.40450871;0.404044122;0.403442174;0.402983338;0.402624071;0.402288526;0.401956618;0.401651651;0.401381075;0.401087791;0.40090403;0.400792271;0.400702953;0.400665313;0.400683671;0.400674373;0.400739729;0.400830269;0.400949389;0.401104689;0.401276737;0.401531368;0.401808381;0.402175546;0.402625322;0.403120846;0.40370509;0.404359221;0.405057639;0.405792564;0.406649381;0.407573819;0.408573747;0.409678817;0.410847902;0.412055045;0.413371027;0.414734989;0.416198879;0.417798549;0.419485599;0.421295673;0.423228502;0.425300926;0.427504092;0.429822206;0.432259202;0.434811205;0.43745476;0.440252572;0.443136632;0.446097106;0.449287117;0.452666461;0.456094742;0.459717363;0.4635804;0.467538774;0.471721977;0.47612527;0.480599731;0.485180944;0.489964247;0.494617343;0.499282867;0.504058719;0.508775413;0.513461769;0.518023193;0.522373497;0.526625276;0.530741036;0.53469032;0.538537502;0.542287052;0.545792222;0.549048722;0.552059591;0.554907143;0.557530046;0.559954166;0.562228918;0.564305246;0.566245258;0.568085134;0.569782317;0.571321428;0.572775304;0.574060321;0.575051188;0.576116979;0.577106893;0.577954769;0.578836799;0.579441249;0.57997185;0.580375195;0.580716729;0.580891669;0.581116557;0.58130455;0.581424832;0.581517816;0.581592619;0.58163631;0.581667304;0.581731856;0.581828594;0.581901968;0.581975043;0.582083464;0.582120419;0.582175553;0.582257509;0.582237601;0.582282543;0.582349658;0.582277417;0.582122803;0.581971407;0.581759632;0.581422687;0.581216276;0.581002057;0.58070147;0.580426753;0.580128312;0.579788804;0.579443336;0.579089344;0.578735948;0.578361213;0.577985108;0.577598214;0.577242196;0.57688868;0.576525033;0.57613939;0.575730622;0.575355113;0.574970007;0.574577987;0.574208081;0.573845744;0.573444724;0.573071539;0.572720408;0.572443962;0.572063327;0.571689546;0.571266532;0.57079047;0.570302188;0.569795609;0.569256127;0.568678617;0.568101764;0.567507207;0.566884339;0.566265762;0.565641522;0.565001607;0.564399302;0.563767135;0.56314522;0.562502801;0.561859787;0.561146975;0.560343087;0.559628248;0.558926225;0.558216035;0.557549775;0.556897461;0.556208611;0.555418432;0.554766178;0.55418843;0.553581357;0.553074837;0.552446306;0.551748276;0.551063597;0.550307035;0.549584031;0.548903346;0.548165619;0.547455251;0.546773434;0.546022534;0.545235991;0.54446888;0.543653786;0.542867899;0.542109668;0.541348934;0.540578485;0.539820075;0.539035439;0.538333297;0.537632227;0.536932766;0.53628099;0.535660863;0.535076737;0.53455317;0.534003258;0.533511996;0.532962024;0.532353997;0.531773508;0.531182468;0.530598462;0.530021727;0.52947098;0.528889298;0.528264463;0.527717829;0.527198374;0.526673615;0.52621603;0.525707424;0.525185585;0.524632096;0.524058521;0.523469448;0.522858441;0.522182286;0.521603763;0.521035314;0.520511389;0.520059705;0.519576192;0.519098282;0.518633008;0.518183708;0.51772362;0.517284751;0.516821027;0.516352534;0.515857816;0.515344501;0.514822304;0.514259577;0.513650954;0.513064384;0.512456059;0.511855006;0.511260331;0.510661483;0.510062277;0.509448588;0.508828461;0.508208811;0.507576883;0.506943047;0.506308258;0.505673885;0.505047917;0.504407585;0.503796041;0.503223896;0.502612531;0.501990139;0.501378834;0.500737309;0.500132442;0.499564171;0.498981178;0.498376578;0.49781996;0.4972772;0.496774018;0.496245712;0.495742351;0.495231867;0.494694203;0.494185567;0.493726283;0.493226677;0.49271813;0.492190868;0.491666019;0.491098791;0.490450114;0.489868462;0.489267677;0.488707036;0.488202542;0.487793386;0.487291783;0.486778766;0.486284435;0.485727638;0.48527208;0.484924167;0.48450464;0.484085053;0.48367101;0.483184546;0.482784182;0.482504249;0.482138276;0.481741101;0.481376022;0.481018871;0.480626553;0.480235755;0.479884088;0.479520857;0.479102552;0.478726715;0.478373438;0.478062302;0.477800518;0.477494746;0.47720772;0.476929009;0.476570278;0.476283371;0.47602433;0.475865275;0.4757047;0.475564659;0.475434601;0.475345761;0.475221574;0.475094557;0.474963963;0.474830031;0.474686921;0.474508315;0.474384904;0.474285901;0.474178344;0.474119574;0.474032372;0.473927528;0.473812014;0.473680943;0.473514795;0.47337538;0.473216236;0.473078936;0.472954154;0.472852379;0.472741097;0.47267741;0.472704202;0.472642213;0.472569555;0.472483009;0.472303867;0.472200334;0.472117871;0.472060859;0.472108334;0.472073972;0.472013265;0.471951783;0.471841753;0.471673101;0.47152853;0.471376002;0.471248657;0.471105725;0.471013188;0.471009344;0.47087875;0.470689535;0.470544666;0.470309019;0.470183134;0.470177054;0.47011295;0.470064253;0.470005244;0.470001906;0.469860554;0.469677746;0.469480723;0.469172955;0.468927741;0.468711436;0.468521744;0.468357056;0.468247861;0.468087405;0.467944324;0.467762589;0.467512995;0.467330664;0.46715638;0.467006534;0.466881394;0.466779441;0.46669814;0.466641843;0.466644436;0.466626555;0.466601759;0.466596633;0.466609657;0.466590971;0.466628343;0.466611803;0.466630042;0.46663481;0.466699213;0.466826022;0.466888636;0.466970354;0.467005759;0.466962487;0.466983467;0.466970026;0.467055619;0.467168897;0.46738407;0.467791736;0.468059868;0.468284518;0.468579948;0.468807787;0.46911642;0.469569027;0.469975144;0.470309883;0.470754415;0.471247375;0.471844763;0.472453982;0.473196417;0.473789215;0.474336237;0.474901348;0.47541222;0.475959778;0.476567566;0.477093697;0.477554202;0.478069365;0.478547841;0.479086459;0.479661226;0.480279028;0.480957031;0.481624365;0.482386887;0.483043015;0.483638138;0.484222472;0.484718144;0.485261112;0.485813022;0.486377835;0.486962229;0.487576216;0.488114923;0.488628685;0.489142269;0.489628077;0.490163207;0.490755856;0.491290301;0.491814762;0.492326051;0.492803812;0.493319839;0.493827194;0.494375467;0.494964123;0.495522171;0.496085763;0.496675879;0.497226834;0.497866899;0.498605698;0.499293119;0.499987543;0.50072062;0.501453578;0.502200484;0.502991855;0.503778279;0.504658282;0.505371571;0.505963564;0.506623268;0.507232428;0.507774591;0.508412421;0.50891453;0.509254634;0.509553313;0.509819269;0.50983423;0.509853423;0.509741247;0.509627998;0.509426236;0.509319246;0.509201944;0.509072542;0.508904338;0.508948803;0.508986294;0.509248078;0.509848356;0.510270298;0.510748088;0.511154354;0.511524081;0.511874318;0.512114704;0.51252383;0.512994826;0.513470352;0.514076173;0.514623582;0.515042126;0.515663207;0.516456604;0.5171597;0.517955601;0.518690169;0.519360125;0.520006418;0.52065444;0.521273255;0.521904945;0.522378504;0.522695899;0.52309227;0.523362815;0.523696542;0.524225652;0.524583995;0.52479285;0.525046706;0.525150955;0.525412858;0.52596432;0.526244402;0.526448011;0.526618779;0.526296914;0.526404083;0.526832938;0.527259827;0.528080285;0.528727353;0.529239297;0.529585242;0.530104578;0.530513763;0.531206846;0.532249749;0.532747567;0.533152997;0.533463478;0.533396721;0.533555329;0.533835888;0.533982933;0.533964634;0.534184575;0.534534216;0.534735024;0.53497088;0.535221279;0.535283625;0.535689294;0.536281049;0.536988974;0.538057148;0.53866744;0.539231241;0.539704263;0.539855897;0.540111601;0.540447056;0.540670276;0.540715039;0.540876269;0.541039586;0.541291058;0.541556001;0.541930377;0.542425811;0.542970061;0.543665171;0.544152558;0.544637501;0.545081377;0.545285761;0.545788884;0.54649204;0.547058821;0.547803164;0.548206329;0.54831177;0.548575938;0.548637688;0.548995376;0.549637258;0.550047874;0.550402999;0.550917625;0.551523447;0.551880777;0.55217576;0.552642167;0.552769065;0.553467631;0.55492574;0.555698991;0.55659461;0.556723893;0.555793166;0.556043923;0.556660771;0.556647003;0.556806386;0.557115376;0.556714535;0.557031691;0.558474541;0.559176922;0.559270382;0.559988558;0.56099844;0.561784923;0.562983871;0.563356936;0.563135147;0.563564897;0.563703537;0.564112484;0.565046608;0.565603197;0.566106319;0.566239655;0.566341758;0.566128194;0.565015137;0.566051304;0.56628263;0.566867471;0.567989945;0.569010198;0.570677459;0.57150805;0.571727335;0.571646273;0.571311295;0.571498692;0.57210809;0.571972609;0.572179854;0.5734182;0.573796749;0.574452698;0.57402581;0.573664069;0.573628068;0.573839366;0.573851705;0.572928905;0.573264658;0.57553488;0.575737119;0.575312078;0.575585425;0.573931396;0.573600471;0.575730205;0.57617116;0.575512946;0.575743735;0.576062441;0.576213896;0.57602495;0.577126265;0.579214573;0.580167592
0.796038449;0.8135131;0.806881189;0.762335956;0.732043147;0.740086615;0.763597429;0.760103285;0.754657924;0.751157522;0.752587736;0.762972951;0.75313729;0.741645694;0.744431376;0.761864305;0.761897087;0.751314938;0.746211231;0.746817231;0.746079266;0.74493736;0.748012841;0.745878756;0.748824239;0.7554425;0.748292267;0.752676725;0.759202003;0.758664131;0.761463225;0.761562645;0.760407269;0.761267483;0.761377156;0.759622931;0.758420527;0.762125075;0.762010872;0.761185169;0.761473835;0.75915432;0.757995725;0.758006275;0.758459568;0.760379553;0.760707378;0.760077059;0.760875881;0.759575844;0.758214116;0.757640183;0.756485522;0.757725;0.758625209;0.75703162;0.755707979;0.755534649;0.756509364;0.757706761;0.755967379;0.754400194;0.75411725;0.753903866;0.756199002;0.757322013;0.7552858;0.753732681;0.754632533;0.755362749;0.75307405;0.75264281;0.752772331;0.752201259;0.750248253;0.750250816;0.750261128;0.74906373;0.748132408;0.748400569;0.74860996;0.747504592;0.746955693;0.746088266;0.745177865;0.745179534;0.744381607;0.743429482;0.742859185;0.742539644;0.741457641;0.740518153;0.740525305;0.739621162;0.738736212;0.738165319;0.73772198;0.737761497;0.737551808;0.736821651;0.736287236;0.735432863;0.73477608;0.734728217;0.734034419;0.733767211;0.73381722;0.733240843;0.732633293;0.731959283;0.731334388;0.731399179;0.730547845;0.729492188;0.729277551;0.728760779;0.728397369;0.728123724;0.727423966;0.726308286;0.72561872;0.725570023;0.724755168;0.724243462;0.723840356;0.723055601;0.722319186;0.721884668;0.721661806;0.721250653;0.720867813;0.720146716;0.719040871;0.718539834;0.718246222;0.717685103;0.716564;0.716118693;0.715836585;0.715260804;0.714201093;0.713016033;0.712341189;0.712287486;0.711187601;0.710435867;0.710043967;0.709320903;0.708943844;0.708201826;0.707071781;0.706793129;0.706122875;0.705134809;0.704356134;0.704619944;0.704083264;0.702838302;0.702396214;0.702104211;0.701713383;0.70116806;0.700662374;0.700491011;0.700267255;0.699555516;0.699090838;0.698633075;0.698295236;0.698537469;0.697932005;0.697274029;0.69722414;0.696898639;0.696211576;0.695552945;0.695407331;0.694966614;0.694374919;0.693698227;0.692750573;0.692124546;0.691538095;0.690694332;0.690184712;0.689738095;0.68908596;0.688049793;0.687320113;0.686684608;0.685921133;0.685006261;0.684622049;0.684416592;0.683828235;0.683480859;0.683205605;0.682734311;0.681770205;0.680775166;0.67993468;0.679310918;0.678891897;0.67817533;0.677290678;0.676664054;0.675948799;0.67550981;0.675322354;0.67463243;0.674403846;0.674468577;0.674439609;0.6745978;0.674750566;0.674746454;0.674486995;0.673917174;0.672892749;0.671482623;0.670206726;0.669127822;0.668185234;0.667275548;0.666572273;0.665910602;0.664950669;0.663174987;0.661630392;0.660656214;0.66022104;0.659896612;0.659644783;0.659388542;0.659030437;0.658540308;0.657945693;0.657329679;0.656863391;0.656477332;0.656072021;0.655573308;0.655146897;0.654669702;0.654134631;0.653669298;0.652968287;0.652249634;0.651726782;0.651239395;0.650844455;0.65033561;0.649425924;0.648559511;0.647696972;0.646857202;0.646273255;0.645464778;0.644542515;0.643744946;0.642903805;0.642006099;0.641093373;0.640232742;0.639166355;0.638143539;0.637329161;0.636433482;0.635476768;0.634473145;0.633479118;0.632804453;0.632056475;0.631094158;0.630218565;0.629472911;0.628757179;0.627960145;0.627136588;0.626314461;0.625595927;0.625087559;0.624277949;0.623455822;0.622809291;0.622033775;0.621167362;0.620438337;0.619988322;0.61894834;0.617938101;0.617266476;0.616759181;0.615850568;0.614940941;0.614350617;0.613397479;0.612624168;0.61191839;0.610874057;0.610144973;0.609477997;0.608709395;0.608000517;0.607216597;0.6063748;0.605562568;0.604972184;0.604307175;0.603465199;0.602538466;0.601717949;0.601007581;0.600305438;0.599330068;0.598631322;0.597958267;0.596902788;0.596323609;0.595690072;0.594817579;0.594033659;0.593283594;0.592458487;0.591528058;0.590745568;0.589963734;0.589223683;0.588626266;0.587784469;0.587067425;0.586551249;0.585740626;0.584811985;0.583985806;0.58337003;0.582593918;0.581813395;0.581053138;0.580240965;0.579523146;0.578757763;0.577927351;0.577360034;0.576469779;0.575461149;0.574758947;0.574420631;0.573587239;0.572330713;0.571586549;0.57082808;0.569906712;0.568873882;0.568085909;0.567361116;0.56645149;0.565231442;0.564463735;0.563793719;0.562914491;0.561689079;0.560532451;0.559592068;0.558827996;0.557890654;0.556868792;0.555855691;0.554946303;0.554203033;0.553208649;0.552013516;0.551266432;0.550270796;0.549135625;0.548158288;0.547659636;0.546891928;0.545760989;0.544569731;0.543573141;0.542488456;0.541257679;0.540200055;0.539401054;0.538593054;0.537565529;0.536559582;0.535742879;0.534926236;0.53376472;0.532375574;0.531193852;0.530332863;0.529468298;0.528430104;0.527309;0.526288152;0.525624633;0.52467376;0.523528814;0.522634566;0.521764636;0.520949662;0.520048678;0.518703938;0.517645478;0.51684016;0.516069949;0.515161812;0.51417625;0.513188481;0.512287498;0.511680067;0.510735333;0.509485126;0.508707643;0.507684767;0.506712377;0.505998015;0.505092382;0.504004657;0.502839088;0.501793325;0.501265943;0.500526667;0.499436498;0.498441398;0.497480094;0.496527195;0.495567232;0.494603157;0.493683428;0.492756248;0.491777003;0.490872622;0.489989728;0.489234746;0.488733321;0.487826526;0.486836642;0.485987276;0.485205501;0.484292954;0.483353287;0.482467562;0.481377035;0.480549097;0.480036348;0.479598582;0.478604615;0.477693588;0.476970762;0.475995511;0.475236297;0.474452853;0.473468333;0.472431988;0.47135523;0.470494539;0.469919652;0.468821526;0.467913985;0.467290848;0.466664642;0.46596393;0.464903116;0.463647157;0.462819636;0.462138802;0.461348295;0.460348129;0.45934391;0.458449334;0.457589775;0.456689119;0.455995888;0.455157161;0.454166204;0.453261971;0.452699751;0.451986849;0.451017439;0.450152695;0.449100167;0.448359668;0.448015422;0.447160006;0.44621402;0.445353925;0.444618374;0.44376564;0.443188339;0.442642242;0.441680223;0.440588266;0.439871579;0.439439833;0.438725203;0.437929392;0.436964065;0.435933232;0.435231;0.434633434;0.433770865;0.432531506;0.431421608;0.430690527;0.430071205;0.429249763;0.428547382;0.427781016;0.426950783;0.426150531;0.42537263;0.424491256;0.423554838;0.42272687;0.421608657;0.42065537;0.420030832;0.41934815;0.418312281;0.417402178;0.416878492;0.416216642;0.415338874;0.41433391;0.413395047;0.412849516;0.411971122;0.410888433;0.409995615;0.409005344;0.408193916;0.407500952;0.406681389;0.405837297;0.405335248;0.405012339;0.404270768;0.403366178;0.402322888;0.401352644;0.400879323;0.400358915;0.399786562;0.39917022;0.398358494;0.397628307;0.397190779;0.396929801;0.396057516;0.394977123;0.393986493;0.393297911;0.392955393;0.392455637;0.391649812;0.390627325;0.389661551;0.3888399;0.388001859;0.387002707;0.386501878;0.386041731;0.385343671;0.384380698;0.383513212;0.38273257;0.382045776;0.381482124;0.381006151;0.380388677;0.379539818;0.378583401;0.378004998;0.377462149;0.37675029;0.375991464;0.3753151;0.374502182;0.373584956;0.372998089;0.372662157;0.372250468;0.371540993;0.370589197;0.370032221;0.369556516;0.368945628;0.36854139;0.367902309;0.367366463;0.367126375;0.366748571;0.36607933;0.365397304;0.364935726;0.364565581;0.364527941;0.364466786;0.36411953;0.363776326;0.363618016;0.363545865;0.363402277;0.363120168;0.362902224;0.362573475;0.361977011;0.361236036;0.360801309;0.360595226;0.36036849;0.359915733;0.359215409;0.358428836;0.357769936;0.357416421;0.357056379;0.356399924;0.355469912;0.354855716;0.354227751;0.353477091;0.352628857;0.351854175;0.351168007;0.350695759;0.350271761;0.349286616;0.348493814;0.347517937;0.346380681;0.345941991;0.345374793;0.344519258;0.343625307;0.343204737;0.34268856;0.341765672;0.34057641;0.339661002;0.33903864;0.338157207;0.337010205;0.336154193;0.335824281;0.335225224;0.334275633;0.340354741;0.339683175;0.338933021;0.338283569;0.337610662;0.336923122;0.336305082;0.335756093;0.335133851;0.334522992;0.333899051;0.333209097;0.332574129;0.331976712;0.331379533;0.330802232;0.330206782;0.32962662;0.329001367;0.328394771;0.327828914;0.327263027;0.326739877;0.326179624;0.325580329;0.325032383;0.324522108;0.323965281;0.323408812;0.322869092;0.322317451;0.321752399;0.321179926;0.320617974;0.320052058;0.319439113;0.318835765;0.318242043;0.317643344;0.317003697;0.31642893;0.315899044;0.315374166;0.314867288;0.314347565;0.313845903;0.313344032;0.312742889;0.312211812;0.311710984;0.311145723;0.310637385;0.310147971;0.30961296;0.309007168;0.308492273;0.308004767;0.307512462;0.307083607;0.306601942;0.306093723;0.30557552;0.305060446;0.30455175;0.304065853;0.303625166;0.303165436;0.302681953;0.302206576;0.301707149;0.301248103;0.300831825;0.300398707;0.299961358;0.299551129;0.299157828;0.298742235;0.298360139;0.297993988;0.297583878;0.297204286;0.296800852;0.296392202;0.296029896;0.295670301;0.295319974;0.294979841;0.29463914;0.294277012;0.29392156;0.293565035;0.293262064;0.29294008;0.292648703;0.292360157;0.292045593;0.291755736;0.291496605;0.291231453;0.290971398;0.29069525;0.2903862;0.290125996;0.28987062;0.289610922;0.2893444;0.289084673;0.288778633;0.28851521;0.288260937;0.288008392;0.287805527;0.287559777;0.287305117;0.287094921;0.286892772;0.286712736;0.286548346;0.286367536;0.286187291;0.286046326;0.28595075;0.285886973;0.285861135;0.285883844;0.285908759;0.285963356;0.286075056;0.286191463;0.286372989;0.286608905;0.286870211;0.287246644;0.287736565;0.288254112;0.288817108;0.289444447;0.290100247;0.290773243;0.291504681;0.292302519;0.293104976;0.293946534;0.294797838;0.295629889;0.296447486;0.297224253;0.297935635;0.298599333;0.299237937;0.299825758;0.30036211;0.300879449;0.301343918;0.301723212;0.30204004;0.302289456;0.302443922;0.302568972;0.302613854;0.30266124;0.302681088;0.302678585;0.30267325;0.302640945;0.302492052;0.302319616;0.302154124;0.301950336;0.301799566;0.30168283;0.301536798;0.301369905;0.301228344;0.301078826;0.30094251;0.300821453;0.300704837;0.300602287;0.300502062;0.300402969;0.300317317;0.300241739;0.300169319;0.300090253;0.299957186;0.299818516;0.299678773;0.299533457;0.299404442;0.299247116;0.299069941;0.298876405;0.298670113;0.298448563;0.298198521;0.297958344;0.297714174;0.297458231;0.297186583;0.296937406;0.296673596;0.296407163;0.296167284;0.295894742;0.295586765;0.295277566;0.294924438;0.294527203;0.294121802;0.293693453;0.293251038;0.292795122;0.292315215;0.291809261;0.291294575;0.290764093;0.290211201;0.289639771;0.289061785;0.288448572;0.287854224;0.287243217;0.28664887;0.286085814;0.285533488;0.284997791;0.284493983;0.283991575;0.283494383;0.283014894;0.282553494;0.282099366;0.281655014;0.281216532;0.280786455;0.280373842;0.279970288;0.279578328;0.27920422;0.278836131;0.278480738;0.278129429;0.277776688;0.277427197;0.277055442;0.276651293;0.276294976;0.275936812;0.275607973;0.27532056;0.275021821;0.274724215;0.274441838;0.2741808;0.273907095;0.273622662;0.273364693;0.273110062;0.272866994;0.272648424;0.272436142;0.27221334;0.272025853;0.271843642;0.271678865;0.271520197;0.27136451;0.271241456;0.27113986;0.271046549;0.270979911;0.270911992;0.270853072;0.270793796;0.270741463;0.270693868;0.270646811;0.270605087;0.270572543;0.27054143;0.270504951;0.270483196;0.270464391;0.270462632;0.270477295;0.270492852;0.270541549;0.270606607;0.270696431;0.270813644;0.270941466;0.271084577;0.271250039;0.271442175;0.271631867;0.271826267;0.272050321;0.272274017;0.272538006;0.272836834;0.273158193;0.273506671;0.273874283;0.274251908;0.274675369;0.275126189;0.275609076;0.276132107;0.276692361;0.277261764;0.277845979;0.278471768;0.279117823;0.279809445;0.280551612;0.281295985;0.282057256;0.282860368;0.28368637;0.284539968;0.285431057;0.286346823;0.287280858;0.288249791;0.289229572;0.290284485;0.291416317;0.292534918;0.293713331;0.294881523;0.296038777;0.297204345;0.298366487;0.299567848;0.300792545;0.301986068;0.303199589;0.304435819;0.305668384;0.306905061;0.308132321;0.309374928;0.310592175;0.31179139;0.312979817;0.314166605;0.315332443;0.316482633;0.317619085;0.318714321;0.319850355;0.320989013;0.32213667;0.323304594;0.324488163;0.325658232;0.32687217;0.328105628;0.329394132;0.330778539;0.332219124;0.333746821;0.335398376;0.337190807;0.339077413;0.341128737;0.343302518;0.345692366;0.348234296;0.350955039;0.353859752;0.357001781;0.360332936;0.363891691;0.3676579;0.371751606;0.376087129;0.380736887;0.385715008;0.391062081;0.396791399;0.402789593;0.40918234;0.415853411;0.422909915;0.430133164;0.437580109;0.445359737;0.453274757;0.461366415;0.469540596;0.477769792;0.485998631;0.494251221;0.50234437;0.510511756;0.518429637;0.526180863;0.533691108;0.541051805;0.548104763;0.554868877;0.561250329;0.567302406;0.57306391;0.578378499;0.583457053;0.588244677;0.592717528;0.59681052;0.600627244;0.604078948;0.607350111;0.610319555;0.61307472;0.615605414;0.617858768;0.619932115;0.621784329;0.623504817;0.625138223;0.626544774;0.62779969;0.62891829;0.629863977;0.630748928;0.631534517;0.632205665;0.632766426;0.633272529;0.633660793;0.634003282;0.634308159;0.634513676;0.634616315;0.63467747;0.6346457;0.634605944;0.634519696;0.634417772;0.634284794;0.634141207;0.633971274;0.63377589;0.6335603;0.63333714;0.633099377;0.632836998;0.632558405;0.632272065;0.631953001;0.631609738;0.631205618;0.630745053;0.630237639;0.629651189;0.629047096;0.628393292;0.627636015;0.626812756;0.625916541;0.6249457;0.623890638;0.622727871;0.621512055;0.620209873;0.618843853;0.617416739;0.615944088;0.61441499;0.612792969;0.611093462;0.609358728;0.607531488;0.605694294;0.603834152;0.601949692;0.600019038;0.598080277;0.596118331;0.594149232;0.592163742;0.590154469;0.588138282;0.58610785;0.58405441;0.581976473;0.579855204;0.577769041;0.575705588;0.573600352;0.57148236;0.569379807;0.567268908;0.565106988;0.562990129;0.560854852;0.558700085;0.556590855;0.554481566;0.552387476;0.550272524;0.54810071;0.54593271;0.543764472;0.541618109;0.539492011;0.537329495;0.535215259;0.533134818;0.531028211;0.528980017;0.52691406;0.524836779;0.522810042;0.52075839;0.518710852;0.516692519;0.51467216;0.512646019;0.510654449;0.508638382;0.506605029;0.504567444;0.502514064;0.500504196;0.498492867;0.49649173;0.494515896;0.492556244;0.490593851;0.488665789;0.486763448;0.484900236;0.483071655;0.481229395;0.479413867;0.477608472;0.475805759;0.473993689;0.472186208;0.470416307;0.468626499;0.466887146;0.465204358;0.463523507;0.461878955;0.460212946;0.458548903;0.45690012;0.455226421;0.453590572;0.451971799;0.450387299;0.448830396;0.447296828;0.445788324;0.444325656;0.442906052;0.441480279;0.440119743;0.438758016;0.437403262;0.436091155;0.434760809;0.433473349;0.432219267;0.430953085;0.429711521;0.428465456;0.427227169;0.426030636;0.424864113;0.423712343;0.422554761;0.421375155;0.420194358;0.419024169;0.417869836;0.416739225;0.415596247;0.414483637;0.413399845;0.412320226;0.411300659;0.410290211;0.409285009;0.408281296;0.407247901;0.406238139;0.405225426;0.404201299;0.403198868;0.40218696;0.401178181;0.400187433;0.399222136;0.398299247;0.397415817;0.39657104;0.395723104;0.394867331;0.394025415;0.393164665;0.392304033;0.391490102;0.390680075;0.389858276;0.389057934;0.388250858;0.387468696;0.386728436;0.385989308;0.385276735;0.384566486;0.383843452;0.38317284;0.382541329;0.381918103;0.381330371;0.380716681;0.380105734;0.379499584;0.378884912;0.378288567;0.37769872;0.377123803;0.376558274;0.376005143;0.375469536;0.374944866;0.374430001;0.373918384;0.373417884;0.37292999;0.372446537;0.371971577;0.371514916;0.371060908;0.370603651;0.370167166;0.369743258;0.369333684;0.368930697;0.368567884;0.3682293;0.367919624;0.367640406;0.367375463;0.367130667;0.366909206;0.366713196;0.366565973;0.366452008;0.366348296;0.366283268;0.366227657;0.366188556;0.366158098;0.366151154;0.366195083;0.366247118;0.366326213;0.366443276;0.366578043;0.366752833;0.366987139;0.367276073;0.36759752;0.367943913;0.368326694;0.368766278;0.369264007;0.36979413;0.370354593;0.370948642;0.371572912;0.372241229;0.372969866;0.373752803;0.374597371;0.375453323;0.376359433;0.377272993;0.378228933;0.37915051;0.380067259;0.380982548;0.381881893;0.382765234;0.383636713;0.384516001;0.385376126;0.386241227;0.387106776;0.387992918;0.388875127;0.389777035;0.390723705;0.39164874;0.392541587;0.393486828;0.394462168;0.395432532;0.396438211;0.397439122;0.398427248;0.399422586;0.40042752;0.401445538;0.402448714;0.40349707;0.404606611;0.405672312;0.406746984;0.4078044;0.408831775;0.409864306;0.410927683;0.411916137;0.41289413;0.413778454;0.414588898;0.415352315;0.416051567;0.41668871;0.417302579;0.417763382;0.418118924;0.418388069;0.418498456;0.418646902;0.418727875;0.418839097;0.418933988;0.419063985;0.41918698;0.419377387;0.419587314;0.419902772;0.420272738;0.420767844;0.421326905;0.421995044;0.422752559;0.423584938;0.424483925;0.425474405;0.426493824;0.427608639;0.42871505;0.429860801;0.430980563;0.432113409;0.433210194;0.434290558;0.435339361;0.436392277;0.437347651;0.438249916;0.439076155;0.43980068;0.440495461;0.441143036;0.44171983;0.442213565;0.442696661;0.443106145;0.443538755;0.443950862;0.444383472;0.444818914;0.445254147;0.445708662;0.446140319;0.4465518;0.44698137;0.447425902;0.447823077;0.448212922;0.448561132;0.448902696;0.4492881;0.44966042;0.450003415;0.450324923;0.4506073;0.450886965;0.451143086;0.451365143;0.451565892;0.451705933;0.451781988;0.451871306;0.45189333;0.451962531;0.452064306;0.452155292;0.452293038;0.47007221;0.470131129;0.470087945;0.469978482;0.469869733;0.469696909;0.469590634;0.469564795;0.469427049;0.469257802;0.469141543;0.468860447;0.468433827;0.468039095;0.467562228;0.4671368;0.466673762;0.466271937;0.465923995;0.465538502;0.46522364;0.46491459;0.464712977;0.464550585;0.46446988;0.464449018;0.464521408;0.464659125;0.464894623;0.465154499;0.465486079;0.465857178;0.466236353;0.466694534;0.467193007;0.467821985;0.468468577;0.469287604;0.47024107;0.471280575;0.472532064;0.473936945;0.475417972;0.477028966;0.478786916;0.480588704;0.482625574;0.484852493;0.487251967;0.489837974;0.492555261;0.495436668;0.498597652;0.502026856;0.50573343;0.509621739;0.513728142;0.518126309;0.52278465;0.527677894;0.532810807;0.538314044;0.544071555;0.550099432;0.55643326;0.563192308;0.57017982;0.577498555;0.585034966;0.592840374;0.601081312;0.609728813;0.618741512;0.628046453;0.637436748;0.646838665;0.656310797;0.665658414;0.674996376;0.684462607;0.693689883;0.702813089;0.711599648;0.719877243;0.727857411;0.735396087;0.742575645;0.749374628;0.755920172;0.762000144;0.767609835;0.77261138;0.777152598;0.781238973;0.784832895;0.788161874;0.791251481;0.793923855;0.796406925;0.798603833;0.800599337;0.802330256;0.804036617;0.805486679;0.806782663;0.807904243;0.808817863;0.80971849;0.810441732;0.81107831;0.811700106;0.812144697;0.812262714;0.812486053;0.812671602;0.812820911;0.813155949;0.81340903;0.813565969;0.81370759;0.813804567;0.813742399;0.813822091;0.813994408;0.814062595;0.814141333;0.814200938;0.814152658;0.814101398;0.813990831;0.813830256;0.813691318;0.813524544;0.813354731;0.813209891;0.813008428;0.812861741;0.812675595;0.812465012;0.812355042;0.812133729;0.811890125;0.811614752;0.811357737;0.810993254;0.810481369;0.810049295;0.809617698;0.809165537;0.80869633;0.808304369;0.807897627;0.807467461;0.80700314;0.806518257;0.806071401;0.805584788;0.805139959;0.804763913;0.804376781;0.804000318;0.80356437;0.803237617;0.802860856;0.802416265;0.801974058;0.801430583;0.80076158;0.800130785;0.799482346;0.798798144;0.798096955;0.797374785;0.7965734;0.795688808;0.794875026;0.794050634;0.793208897;0.792408466;0.791559398;0.790666223;0.789755225;0.788806319;0.78788048;0.786908209;0.785975695;0.785066068;0.784207761;0.783331931;0.782463789;0.781586111;0.780742764;0.779842317;0.7789132;0.777975202;0.777005374;0.776025057;0.775015414;0.774023831;0.773033321;0.772055089;0.771015644;0.769983351;0.768883646;0.767703295;0.766522944;0.765245795;0.764094651;0.763058782;0.761903167;0.760694146;0.759566188;0.758384526;0.757205427;0.75615108;0.755279183;0.75427264;0.753225446;0.752240658;0.751266599;0.750299871;0.749388516;0.748445213;0.747462153;0.746510565;0.745576799;0.744648814;0.743730605;0.742844999;0.741912484;0.740958035;0.740022063;0.739042521;0.738127112;0.737267494;0.736384511;0.735501826;0.734647691;0.733891726;0.732998073;0.732053816;0.731074512;0.73012197;0.729049206;0.728107154;0.727276087;0.726388097;0.725467563;0.724607646;0.723804712;0.722962737;0.722171426;0.721314132;0.720361829;0.719466567;0.718580067;0.717704117;0.716782928;0.715931475;0.71490401;0.713768125;0.712610185;0.711301327;0.710102439;0.708888769;0.707728922;0.706665754;0.705543458;0.704435349;0.703295946;0.702132642;0.700947821;0.699720323;0.698419631;0.697200954;0.695974171;0.694772542;0.693658113;0.692476034;0.691219926;0.690034509;0.688829303;0.687695324;0.686683595;0.685602367;0.684485853;0.683446825;0.682359993;0.681209922;0.680138588;0.679132581;0.678065598;0.677017331;0.675925195;0.674755692;0.673639834;0.672501802;0.671421111;0.670416474;0.669378042;0.668342113;0.66732657;0.666302383;0.665239394;0.664224207;0.663263679;0.662237406;0.66114831;0.660184503;0.659230411;0.658330262;0.657525182;0.656724215;0.655931175;0.655167758;0.654528022;0.653791606;0.652954578;0.65221417;0.651479721;0.650741398;0.649964452;0.649201393;0.64845705;0.647636056;0.646910071;0.646271527;0.645653427;0.645046234;0.644478083;0.643978119;0.643479407;0.643004417;0.642529786;0.642087221;0.641614676;0.641114414;0.640771985;0.640497983;0.640351772;0.640129089;0.639978647;0.639765918;0.639545321;0.639248908;0.638942659;0.638583839;0.638023615;0.637641191;0.637338459;0.637021184;0.63674432;0.636503756;0.63637805;0.636259794;0.63613975;0.636153221;0.636027575;0.635813355;0.635627866;0.635369301;0.635252655;0.635215878;0.635102928;0.635119736;0.634979963;0.634661973;0.6344015;0.634089053;0.633841336;0.633719981;0.633454561;0.633168161;0.632778883;0.63234663;0.631885469;0.631508589;0.631197214;0.630887628;0.630641401;0.630306423;0.629969001;0.629588425;0.629110873;0.628686965;0.628225327;0.627859712;0.62760675;0.627263606;0.626912832;0.62659061;0.626261055;0.625858665;0.625526488;0.625287175;0.624881625;0.62433356;0.623897195;0.623414159;0.622997105;0.622676373;0.622293174;0.62183708;0.62149024;0.621165156;0.620913804;0.620815992;0.620595336;0.62036854;0.620135427;0.619789362;0.619548619;0.619342685;0.619186103;0.619062543;0.619044125;0.619006813;0.618973315;0.618980885;0.618951559;0.618964434;0.61903739;0.619038522;0.618979514;0.619025528;0.619075298;0.619197607;0.619385481;0.619635105;0.619914055;0.620257974;0.620688081;0.621159256;0.621730685;0.622271419;0.622772574;0.623421311;0.624088824;0.62485826;0.625814438;0.626773834;0.627763629;0.628837824;0.629918039;0.631066084;0.632186115;0.633321881;0.634452105;0.635544538;0.636753976;0.638030827;0.639290512;0.640587807;0.641952932;0.643346548;0.6447438;0.646269679;0.6476717;0.6490013;0.650343895;0.651664495;0.652964056;0.654168069;0.65549171;0.656916678;0.658257782;0.659713328;0.661024928;0.662056267;0.663267016;0.664574921;0.665812552;0.666994214;0.66833365;0.669502258;0.670525432;0.671676695;0.672900617;0.674031436;0.675124049;0.676282167;0.677464426;0.678566933;0.679635227;0.680772543;0.681877911;0.682985306;0.684147835;0.685362577;0.686492622;0.68777597;0.689326584;0.690657973;0.691891611;0.693208396;0.694367349;0.695760489;0.697376847;0.698953152;0.700818121;0.702358127;0.70382458;0.705070019;0.705902457;0.706828356;0.707734942;0.708506107;0.709209502;0.70991081;0.71033293;0.71051228;0.710544586;0.710319996;0.710152388;0.709790707;0.709586203;0.709418595;0.709293783;0.709148347;0.709160149;0.709201157;0.70947051;0.709865808;0.710497618;0.711423397;0.712336957;0.713613093;0.714485586;0.715145528;0.715975702;0.716605306;0.717475593;0.718569636;0.71968931;0.720755875;0.722140074;0.723930597;0.725486994;0.727271259;0.728763342;0.730033517;0.731199801;0.73212254;0.733130515;0.734053731;0.734941363;0.735963583;0.736736476;0.737239182;0.737792134;0.73814249;0.738625824;0.739225805;0.739762068;0.740392625;0.740884364;0.741209269;0.741588891;0.741705716;0.742162526;0.742968619;0.743651688;0.744577825;0.745365679;0.745876253;0.746463776;0.747306406;0.74829936;0.749205887;0.750377238;0.751102388;0.7515468;0.752100885;0.75243926;0.753136396;0.754049778;0.754742861;0.75560981;0.756083429;0.756136835;0.756572902;0.756986856;0.757508874;0.758066058;0.75912708;0.760602653;0.761600673;0.763046026;0.763718069;0.763390899;0.763941586;0.764674723;0.765355647;0.766375303;0.767110944;0.767476797;0.768374503;0.769765794;0.770484269;0.770944595;0.771857977;0.772485495;0.773403168;0.775081635;0.776153266;0.776779473;0.777614295;0.778482616;0.779363394;0.780325592;0.780966341;0.781442106;0.782005489;0.782320857;0.782769799;0.783346593;0.783998549;0.784578264;0.785313427;0.786250532;0.78720665;0.788359284;0.789155245;0.789840579;0.790707052;0.791472375;0.791983306;0.79244411;0.793119013;0.793230832;0.794361532;0.796822846;0.797918379;0.798754573;0.799545348;0.799453378;0.799960613;0.801008344;0.801668704;0.801964343;0.802742779;0.803954303;0.804258347;0.804411113;0.804548919;0.803706467;0.80407232;0.805581748;0.805800378;0.805579722;0.806052029;0.806108475;0.806277871;0.806863368;0.808191836;0.809894025;0.810607731;0.812239408;0.81242007;0.810194314;0.811792314;0.81291616;0.814879775;0.815785944;0.815871418;0.81683892;0.817540288;0.818977118;0.820626259;0.821147501;0.821222544;0.821208835;0.819639266;0.819148362;0.821047068;0.822652698;0.823629439;0.823848009;0.821167231;0.820983648;0.824430287;0.825349987;0.826237261;0.826415837;0.823894739;0.822700381;0.821650147;0.821332812;0.821152329;0.821937084;0.824466109;0.825888455;0.828475177;0.829461038;0.828342676;0.828770697;0.828969836;0.82909447;0.829694867;0.830939174
0.783860505;0.778473973;0.785720646;0.795503974;0.786586463;0.772531867;0.762349963;0.758782685;0.761108935;0.758560896;0.752403915;0.755864501;0.745458543;0.73528862;0.73676008;0.747621179;0.752034903;0.747611463;0.739255786;0.736155093;0.742102385;0.748677611;0.742769539;0.734266758;0.73494494;0.744453967;0.748728096;0.749358773;0.745644391;0.740310252;0.745090485;0.74442029;0.741226375;0.743088722;0.741385221;0.742797852;0.745858908;0.742688358;0.743937135;0.745619655;0.744016826;0.739263713;0.741016746;0.744222283;0.742509484;0.741864443;0.741734743;0.742487252;0.744446754;0.742774069;0.740739584;0.739753306;0.737774849;0.74069947;0.742360413;0.738714457;0.738927901;0.740079522;0.740348577;0.73885262;0.737468839;0.736570954;0.736440837;0.737315595;0.738086879;0.738250554;0.737552166;0.735708416;0.734760523;0.734969795;0.735671878;0.735500753;0.73447603;0.733553231;0.734129429;0.73432529;0.733792841;0.732855976;0.732495129;0.732919157;0.732949018;0.731707752;0.731434226;0.730730116;0.730091512;0.731023073;0.729264081;0.728142858;0.72913903;0.729113579;0.728299201;0.727309465;0.726788998;0.726764679;0.726820171;0.72678405;0.72667855;0.726506233;0.726051986;0.725453377;0.725516081;0.724944353;0.724324763;0.724371672;0.723893404;0.723827481;0.724134922;0.724048674;0.723641813;0.72349894;0.723593593;0.722601771;0.721893728;0.721759856;0.72193259;0.721361041;0.720894754;0.720743656;0.720517099;0.720160902;0.719637096;0.719107866;0.719208002;0.718818843;0.718176723;0.717888713;0.717593133;0.717360377;0.717166603;0.716887534;0.716809511;0.716414928;0.715515971;0.715089917;0.71499455;0.714823484;0.714185536;0.71381551;0.713545322;0.713228405;0.712838411;0.712297857;0.71162802;0.710976839;0.710834324;0.710429013;0.709786236;0.709369183;0.709063947;0.708738267;0.70831567;0.707812726;0.70721966;0.706748247;0.706495285;0.705871999;0.705281615;0.704828739;0.704399109;0.704318881;0.704151988;0.703684688;0.703350484;0.703178167;0.70295608;0.702479839;0.702156842;0.701679587;0.701245606;0.701527476;0.701108813;0.700517297;0.700330377;0.700208545;0.699814975;0.699270964;0.698915482;0.698783815;0.698508382;0.697917938;0.69714582;0.696701527;0.696328223;0.695763886;0.695603073;0.695423603;0.69502902;0.694442153;0.694062352;0.693654001;0.693053722;0.69237262;0.692243278;0.69223398;0.691718757;0.691405654;0.691278875;0.691051781;0.690231979;0.689387321;0.688844502;0.688647032;0.688257873;0.687872052;0.687522709;0.687153578;0.68665725;0.686382055;0.686351776;0.686001003;0.686110497;0.68648386;0.686740041;0.687108576;0.687374532;0.68749547;0.68757236;0.687160194;0.686383069;0.685504019;0.684785068;0.6842466;0.683802187;0.683330297;0.682902813;0.682655811;0.682284534;0.680912316;0.679852068;0.679289758;0.679064095;0.67903477;0.679067254;0.679040015;0.678861737;0.678631186;0.678264499;0.677796066;0.677547097;0.677254856;0.676990449;0.676884532;0.676728189;0.67644608;0.67610538;0.675903797;0.675425649;0.674904048;0.674574792;0.67422086;0.674041927;0.673828363;0.673210979;0.67273134;0.672195792;0.671554208;0.671148121;0.67071569;0.67026931;0.669879079;0.669462979;0.668994725;0.668501437;0.668043971;0.667393327;0.666767299;0.666318655;0.665826499;0.665254951;0.664543927;0.663717628;0.66342026;0.663081288;0.662470043;0.661996961;0.661582589;0.661146283;0.660620332;0.66001904;0.659447491;0.658988297;0.658664048;0.658058822;0.657455146;0.657044709;0.65659827;0.655956864;0.655424356;0.655274332;0.654387534;0.653596282;0.653232157;0.652902544;0.652306378;0.651650965;0.651147366;0.650590837;0.650129497;0.649602175;0.648761034;0.648308694;0.6478737;0.647273719;0.646847486;0.646344781;0.645739794;0.645096183;0.644543648;0.644046724;0.643501878;0.642785013;0.642314494;0.641907215;0.641363442;0.64065969;0.640253365;0.639791727;0.638811707;0.638463914;0.638042092;0.637311459;0.636732996;0.63620609;0.635587156;0.634830952;0.634230554;0.633621216;0.633085966;0.632776976;0.632156134;0.631624401;0.631274164;0.630563438;0.629860938;0.629298389;0.628843367;0.628102839;0.627556384;0.627147496;0.626454294;0.626053751;0.625579715;0.624847829;0.624308765;0.623547673;0.622761369;0.622300804;0.622236133;0.621589184;0.620436132;0.619841456;0.619390309;0.618795931;0.617981195;0.617305517;0.61676842;0.616124094;0.615166366;0.6146276;0.614205122;0.613598287;0.612622499;0.611874998;0.611286938;0.610671759;0.609957814;0.609158635;0.608407736;0.607839823;0.60717684;0.60630846;0.60539937;0.604905784;0.604219496;0.603329778;0.602465153;0.602154434;0.601600587;0.600676;0.599668801;0.598908663;0.598089397;0.597129822;0.59633857;0.595683098;0.595037043;0.594294012;0.593478858;0.592821777;0.592208445;0.591346085;0.590174139;0.589181483;0.588546455;0.587985754;0.587205648;0.586307347;0.585503757;0.585016906;0.58432889;0.58344239;0.582638919;0.581914544;0.581304312;0.580632746;0.579488277;0.578687131;0.578131914;0.577548623;0.57683444;0.576000452;0.575168967;0.574488938;0.573985696;0.57313484;0.57203424;0.571456254;0.570705712;0.569907248;0.56924051;0.568665862;0.567866206;0.566910982;0.56606853;0.565719903;0.5651353;0.564151525;0.563185394;0.562400758;0.561688185;0.560935736;0.560131669;0.559383214;0.558644235;0.557862341;0.557185531;0.556486428;0.555859566;0.555474937;0.55477792;0.554013908;0.553340614;0.552666485;0.551909626;0.551143348;0.550401926;0.549444497;0.548749089;0.548357606;0.548029363;0.547256231;0.546519458;0.545905113;0.545095921;0.544539273;0.543959141;0.543158054;0.542304337;0.541349888;0.540547431;0.540020049;0.539146066;0.538406789;0.53787148;0.537348986;0.536756814;0.535866618;0.534792244;0.534002423;0.533427656;0.53279388;0.531961739;0.531150997;0.530415356;0.529650986;0.528801441;0.528255582;0.527579546;0.526733518;0.525956452;0.525515437;0.524942756;0.52413106;0.523409545;0.52244103;0.521762192;0.521509111;0.520822048;0.520057559;0.519308567;0.51859355;0.517859876;0.517463446;0.517114282;0.516312122;0.515296221;0.514645934;0.51432234;0.513768315;0.51308918;0.512255669;0.511390269;0.510819435;0.510350406;0.50959301;0.50843066;0.507426083;0.506819665;0.506304204;0.505545616;0.504975736;0.504282653;0.503537238;0.502957165;0.502265215;0.501434803;0.500549972;0.499744624;0.498776078;0.497968286;0.497439772;0.496923238;0.496077508;0.495271385;0.494764417;0.494277984;0.493479639;0.492540956;0.491762072;0.491329104;0.490557492;0.489557832;0.488703668;0.487776428;0.487060606;0.486456841;0.485681355;0.485006988;0.484567404;0.484217942;0.483601272;0.482754499;0.481784016;0.480924159;0.48050487;0.480079889;0.47961992;0.479083657;0.478273004;0.477589011;0.477171093;0.476876497;0.476119995;0.475121945;0.474135369;0.473411262;0.473139793;0.472721368;0.47203061;0.471178114;0.47025016;0.469455928;0.468603373;0.467499375;0.467132181;0.466690093;0.465913296;0.465021014;0.464185387;0.463354707;0.462670177;0.462356478;0.461931437;0.461323768;0.460519373;0.459574163;0.459073812;0.458621502;0.457921416;0.457021594;0.456398576;0.455654055;0.454721034;0.454167277;0.453811765;0.453351229;0.452602416;0.451640993;0.451033056;0.450553268;0.449989945;0.449494898;0.448798656;0.448243171;0.447967201;0.447456896;0.446821272;0.446133912;0.445491135;0.44502157;0.444851816;0.444705725;0.444315434;0.443682432;0.44339335;0.443286955;0.443075955;0.442730606;0.442459226;0.442113966;0.441498101;0.440537512;0.440042853;0.439796418;0.439410299;0.438870847;0.438278228;0.437558293;0.436792821;0.436473161;0.436082959;0.435414225;0.434529215;0.43382585;0.433429062;0.43282482;0.431790978;0.430950582;0.430183381;0.429650694;0.429270327;0.428515166;0.427568734;0.426576495;0.425683409;0.425008118;0.424570501;0.423920512;0.423053384;0.422576755;0.422108352;0.421182007;0.419981867;0.419304997;0.418749392;0.417967469;0.41696167;0.416079998;0.415656716;0.415157646;0.414359599;0.422239631;0.421680868;0.421103865;0.420543581;0.419899046;0.419197112;0.418561071;0.417892247;0.41725266;0.416678041;0.416077256;0.41543901;0.414819121;0.414236426;0.413636774;0.41299966;0.412402749;0.411849856;0.41124922;0.410671502;0.410125107;0.409576863;0.409028143;0.408488065;0.407964885;0.407434285;0.406936467;0.406386822;0.405802786;0.405225277;0.404650182;0.404005289;0.403350085;0.402844876;0.402250886;0.401597559;0.401020288;0.400473684;0.399858892;0.399242729;0.398682415;0.398106575;0.397537708;0.397011131;0.396464258;0.395884365;0.395333767;0.394786149;0.394271344;0.393696725;0.393093675;0.392507702;0.391984731;0.391462475;0.390992135;0.390454054;0.38988021;0.389324576;0.38875404;0.388211101;0.387688309;0.387179911;0.386683762;0.386138231;0.385510206;0.384948283;0.384448767;0.383887798;0.383414775;0.382965952;0.382476181;0.381961852;0.38143757;0.38087225;0.380368143;0.379859;0.379393727;0.378978223;0.378558367;0.378121346;0.377658725;0.377242655;0.376809865;0.376383185;0.375984639;0.37550813;0.375076205;0.374653488;0.374217331;0.373786092;0.373375297;0.372980714;0.372566432;0.372196585;0.371870071;0.371517122;0.371165812;0.370820791;0.370448083;0.370077252;0.369699687;0.36930275;0.368916571;0.36855185;0.368192166;0.367841095;0.367514729;0.367187709;0.36681506;0.366457671;0.3661111;0.365747422;0.365436792;0.365115821;0.36476475;0.364458531;0.364163578;0.363901228;0.363649845;0.363382339;0.363140136;0.362891376;0.362674624;0.362481207;0.36233741;0.362177819;0.36204353;0.361941069;0.361852199;0.361806989;0.361798823;0.361833274;0.361940295;0.362097532;0.36229524;0.362554818;0.362848461;0.363158703;0.36351648;0.363869637;0.364213228;0.364605695;0.365032196;0.365469664;0.365923226;0.366373837;0.366771013;0.367120892;0.367428511;0.367720991;0.367994279;0.368243128;0.368480474;0.368661195;0.368783951;0.368846923;0.368879676;0.368852109;0.368806243;0.368721515;0.368624866;0.368498921;0.368363917;0.368233472;0.368070692;0.367874742;0.367683232;0.367465168;0.36723569;0.367011636;0.366771519;0.366547853;0.366326034;0.366109967;0.365912199;0.365698904;0.365475655;0.365252614;0.365003347;0.364794075;0.364604712;0.364431351;0.364247978;0.364070922;0.363851279;0.363603801;0.363409698;0.363217622;0.362992436;0.362770051;0.362533361;0.362253994;0.362000138;0.361759365;0.36151427;0.361279517;0.361013174;0.360746711;0.36046204;0.360136181;0.359817088;0.359551549;0.359267294;0.35895893;0.35863933;0.358265489;0.357865453;0.357463688;0.357060015;0.356629491;0.356157243;0.355726063;0.355320632;0.354863435;0.354398787;0.353927433;0.353422672;0.352914393;0.352416545;0.351897955;0.351354063;0.350795448;0.350211829;0.349637032;0.34909907;0.348546118;0.348051816;0.347618908;0.347174227;0.346765995;0.346313596;0.345841318;0.345397621;0.344932079;0.344494075;0.344094545;0.343690813;0.343286306;0.342892349;0.342502117;0.342136592;0.341814965;0.341446489;0.34109655;0.34075138;0.340384513;0.339987576;0.339611024;0.339224607;0.33886981;0.338544339;0.338186622;0.337812901;0.337480605;0.337141454;0.336821288;0.336552173;0.336270362;0.335974783;0.335692108;0.33541289;0.335159808;0.334920406;0.334693372;0.334467202;0.334268034;0.334049881;0.333810568;0.333608687;0.333412856;0.333248645;0.333123386;0.332977742;0.332834363;0.332712978;0.332595706;0.332484514;0.332414061;0.332311541;0.332185656;0.332069099;0.331948817;0.331828147;0.331687987;0.33158198;0.331481189;0.33140263;0.331349105;0.331334561;0.331307471;0.331281364;0.331288695;0.33131066;0.331348389;0.331408381;0.331486881;0.331589788;0.33168292;0.331790626;0.331904024;0.331992954;0.332127184;0.332295895;0.332470983;0.332648486;0.33286795;0.333116293;0.333379924;0.333680928;0.333992034;0.33431989;0.334646106;0.33502683;0.335439384;0.335877329;0.336370975;0.336829245;0.337279677;0.337767899;0.33824715;0.338772207;0.339340329;0.339924067;0.34052074;0.341153741;0.341820091;0.342509806;0.3432464;0.343973964;0.344716936;0.345466107;0.346222192;0.346976548;0.347730279;0.348518997;0.349300444;0.350072026;0.350869834;0.351681322;0.352502555;0.353356302;0.354174346;0.354988068;0.35579437;0.356586397;0.357372314;0.358170331;0.358936727;0.359686106;0.360411018;0.361085802;0.361798137;0.362506002;0.363223672;0.363947064;0.364706218;0.365476072;0.366264194;0.367080152;0.367920488;0.368806005;0.36974597;0.370768428;0.371895224;0.373125732;0.374445409;0.375856966;0.377343804;0.378995121;0.38074407;0.382636726;0.384671777;0.386875004;0.389217883;0.39170891;0.394333094;0.397202551;0.400220603;0.403494775;0.407036752;0.410814643;0.414851099;0.419084281;0.423568726;0.428259134;0.433250844;0.438352555;0.443640918;0.449141711;0.454746395;0.460484684;0.466238379;0.472046524;0.477847725;0.483662993;0.489352077;0.495102137;0.50064677;0.506058455;0.511285126;0.516385972;0.521294892;0.525997162;0.530471146;0.534771383;0.538843453;0.542648196;0.546245098;0.549610078;0.552778244;0.555699944;0.558406115;0.560856879;0.56319201;0.565314889;0.567270279;0.569112122;0.570836127;0.572396755;0.57379806;0.575138032;0.576366842;0.577455223;0.57846725;0.579370499;0.58015734;0.580862284;0.58146441;0.581991076;0.58239615;0.582792044;0.583123207;0.583421946;0.583690763;0.583883047;0.584007442;0.584114492;0.584161162;0.584190547;0.584198058;0.584176302;0.584094822;0.584041774;0.583998919;0.583918869;0.583822787;0.5837183;0.583599508;0.583455563;0.583310902;0.583141387;0.582908988;0.582605362;0.582273722;0.58195442;0.58161521;0.58123827;0.580839157;0.58035934;0.579811037;0.579252779;0.578653216;0.578000188;0.577282131;0.576485813;0.575630367;0.574706435;0.573748112;0.572761297;0.571703911;0.570581555;0.569422007;0.568194509;0.566958964;0.565693617;0.564397454;0.563070774;0.561725855;0.560347795;0.558947384;0.557519555;0.556090415;0.554635167;0.553185046;0.551742196;0.550277054;0.548795998;0.547303677;0.545790255;0.544283271;0.542780876;0.541255414;0.539696276;0.538180709;0.536686897;0.535154998;0.533661544;0.532123089;0.530572772;0.529033601;0.527472079;0.525952876;0.524407387;0.522839129;0.521292806;0.519736052;0.51819557;0.51665467;0.515096724;0.513560355;0.512031078;0.51049161;0.508966625;0.50743252;0.505887926;0.504344642;0.502810001;0.501297414;0.499785364;0.498269975;0.496749759;0.495224416;0.493725896;0.492246777;0.490745932;0.489258289;0.487774491;0.486247957;0.484767854;0.483317137;0.481886327;0.480476528;0.479080677;0.477703393;0.476355076;0.475038737;0.473698467;0.472363442;0.4710491;0.469723284;0.468419075;0.467172891;0.465892047;0.464564592;0.463294268;0.462022007;0.460794061;0.459659994;0.458461314;0.457253903;0.456045091;0.454790652;0.453562409;0.452342063;0.451146394;0.449960142;0.448785841;0.447619975;0.446502835;0.445405155;0.44434154;0.443345517;0.442306876;0.441283196;0.440307915;0.43930459;0.438345909;0.437404543;0.436443716;0.43553412;0.434626311;0.433729172;0.432867318;0.431969106;0.431090593;0.430257469;0.429390073;0.428530246;0.427687883;0.426824719;0.42596519;0.425106436;0.424284577;0.423463076;0.42261225;0.421829045;0.421047777;0.42025286;0.419484645;0.418673635;0.417872459;0.41710192;0.416333139;0.41558668;0.414870381;0.414181679;0.413501501;0.412830949;0.412164658;0.411496311;0.410826832;0.410184324;0.409564584;0.408950746;0.408346921;0.40773645;0.407128453;0.406523079;0.405928195;0.405329049;0.404740989;0.404168129;0.403572738;0.403013676;0.402476519;0.401948094;0.40145427;0.400945634;0.400447965;0.399952918;0.399448544;0.39895764;0.398484856;0.398007005;0.397524416;0.397066832;0.396613002;0.396184832;0.395785868;0.395374179;0.394980818;0.394564182;0.394130945;0.393711299;0.393286288;0.392875254;0.392461747;0.392090559;0.391735852;0.391400099;0.391112953;0.390798062;0.390471071;0.390177995;0.389889657;0.389619321;0.389372796;0.389143914;0.388925135;0.388730556;0.388563931;0.388404995;0.388258934;0.388130307;0.388012856;0.387906551;0.387827009;0.387752771;0.387703001;0.387674093;0.387649029;0.387669146;0.387698025;0.387750357;0.387854397;0.387956858;0.388102919;0.388313293;0.388496786;0.388686091;0.388919562;0.38913089;0.389394552;0.389754772;0.390113443;0.39049527;0.390918404;0.3913486;0.391821146;0.392326713;0.39286077;0.393437624;0.394022584;0.394652277;0.395279646;0.395928323;0.396552026;0.397168279;0.397786111;0.398382425;0.398984283;0.399597198;0.400201917;0.400807351;0.401395291;0.401955485;0.402541876;0.40310362;0.403713435;0.404372305;0.40503034;0.405721188;0.406400084;0.407071471;0.407758325;0.408459812;0.409150362;0.409822285;0.410542548;0.411282182;0.412023872;0.412811041;0.413579732;0.414341897;0.415091217;0.415835172;0.416587174;0.417343199;0.418063939;0.418800056;0.419478178;0.420103163;0.420707285;0.421295851;0.421823859;0.422322273;0.422735929;0.423093706;0.423370868;0.423561364;0.423705369;0.423764199;0.423821867;0.423815548;0.423846006;0.423869222;0.423894972;0.423915476;0.423971325;0.424003273;0.424177438;0.424413145;0.4247756;0.425167114;0.425602138;0.426119626;0.426675469;0.427305847;0.428052902;0.428789467;0.429582089;0.430378288;0.43119216;0.431986511;0.432807773;0.433590591;0.434357911;0.435078979;0.435767055;0.436422646;0.437044501;0.437601656;0.438118011;0.438590735;0.438995659;0.439369977;0.439700454;0.440001696;0.440215647;0.44050619;0.440832824;0.441113055;0.441408217;0.441671997;0.441868693;0.442118198;0.442398816;0.442659944;0.442921191;0.443182588;0.443443179;0.443694264;0.443927348;0.444163322;0.444390118;0.444584131;0.444789708;0.444967508;0.445149004;0.445369512;0.445525378;0.445646435;0.445733637;0.445759088;0.445785701;0.445781797;0.445785314;0.44577238;0.445778459;0.445809811;0.460397184;0.46030128;0.460249901;0.460157275;0.460063398;0.460053027;0.459974885;0.459882915;0.459695041;0.459458143;0.459191829;0.458917797;0.458600223;0.458207697;0.457772791;0.457356542;0.456752062;0.456337005;0.45604825;0.455788881;0.455496043;0.4552145;0.455002099;0.454776853;0.454617858;0.454536408;0.454491645;0.45446822;0.454476327;0.454559356;0.454705477;0.454862088;0.455019146;0.455254555;0.455510616;0.455866545;0.456263244;0.456783473;0.457403213;0.458078653;0.458898127;0.459780008;0.460767388;0.4618406;0.463045001;0.464315563;0.465762287;0.467344671;0.469053984;0.470985353;0.472985029;0.475027531;0.477246851;0.479621321;0.482054502;0.48473385;0.487610728;0.490697503;0.494009346;0.497469783;0.501108527;0.504896641;0.508794367;0.512980461;0.517332792;0.52187264;0.526708066;0.531826735;0.537088931;0.542655706;0.548534632;0.554614842;0.561036766;0.567621231;0.574279547;0.581141412;0.588280559;0.595249355;0.602287531;0.609458089;0.616513133;0.623471618;0.6302163;0.636921644;0.643536687;0.649764597;0.655765831;0.661622643;0.667234957;0.672360241;0.677301764;0.682040691;0.686449647;0.690575719;0.69437778;0.697848916;0.701085925;0.703988969;0.706752002;0.709291279;0.711649716;0.713770986;0.715835631;0.717592835;0.719154596;0.720588505;0.721826136;0.722945333;0.723927081;0.724866807;0.725751936;0.72649312;0.727099895;0.727661073;0.728075087;0.728446424;0.728830993;0.729182482;0.729441464;0.729651153;0.729870737;0.730007768;0.730203331;0.730444729;0.730683684;0.730854034;0.731065631;0.731272519;0.731369972;0.731495559;0.731529057;0.731493175;0.731381595;0.731265545;0.731090307;0.730862856;0.730660379;0.730370879;0.730042696;0.729760408;0.729474247;0.729109824;0.728721023;0.728341043;0.727871597;0.727262437;0.726735771;0.726199687;0.725653708;0.725182354;0.724721074;0.724161863;0.723543704;0.722916484;0.722217321;0.72156328;0.720873117;0.720232129;0.719625115;0.719007492;0.71836555;0.717857063;0.717364371;0.71674484;0.716129482;0.715521336;0.714880109;0.714188278;0.713496804;0.712830663;0.712094367;0.711319685;0.710495949;0.709605396;0.708696485;0.707795441;0.706853688;0.705958962;0.705137908;0.704225719;0.703284144;0.702323854;0.701262772;0.700299501;0.69939512;0.698460698;0.69757241;0.696628571;0.695711255;0.694745839;0.693855464;0.693024158;0.692171812;0.691392303;0.690497279;0.68953377;0.688591361;0.687598169;0.686593771;0.685552597;0.684594095;0.683613718;0.682616651;0.681598604;0.680638254;0.679570735;0.678349495;0.677268624;0.676245809;0.675172091;0.674094617;0.673079729;0.672055006;0.671024919;0.670079827;0.669244468;0.668362498;0.667497814;0.666618288;0.665723622;0.664874673;0.664000392;0.663203776;0.662494779;0.66177392;0.661166906;0.660438776;0.659661829;0.658827186;0.658031464;0.657161891;0.65635246;0.655622303;0.654820859;0.653970242;0.653147876;0.652299583;0.651493013;0.650731325;0.649947464;0.649166048;0.648400307;0.64762491;0.646817803;0.646067381;0.645338178;0.644629896;0.643945396;0.643281937;0.642683744;0.64202106;0.641346753;0.640672088;0.640013516;0.639273107;0.63849467;0.637702584;0.636878729;0.635971427;0.635088444;0.634191036;0.633328497;0.63246572;0.631586015;0.630773544;0.629874885;0.628898382;0.627931714;0.626903296;0.625919819;0.62495023;0.623996198;0.623027384;0.62209022;0.621109307;0.620081723;0.619090378;0.618081629;0.617117167;0.61616993;0.615254641;0.61432308;0.613493741;0.612800181;0.612034976;0.611320198;0.610583186;0.609797776;0.608920097;0.608104467;0.607297421;0.606495202;0.605725586;0.604901433;0.604007721;0.603205681;0.602408409;0.601634264;0.601000607;0.600256979;0.599436164;0.598600566;0.597854555;0.597093523;0.596380591;0.595812798;0.595086157;0.5942716;0.593509912;0.592702389;0.591933489;0.591158569;0.590462029;0.589775681;0.589157164;0.588692486;0.588150501;0.58759588;0.587055862;0.586515129;0.585952222;0.585395396;0.584852457;0.584316492;0.583756924;0.583227873;0.582725465;0.582234979;0.581748962;0.581279457;0.5808267;0.580408037;0.579989493;0.57961452;0.579295099;0.578971863;0.578724086;0.578490973;0.578229249;0.578013837;0.577710807;0.577326119;0.576993108;0.57662797;0.57630837;0.576023638;0.575746596;0.57547152;0.575234771;0.575026155;0.574826658;0.574677885;0.574489653;0.574338257;0.574251652;0.574096918;0.573927939;0.573811531;0.573683083;0.573557615;0.573495507;0.573381841;0.573212981;0.573086619;0.573022187;0.572869658;0.572659791;0.572461545;0.572203994;0.571990192;0.571861088;0.571645141;0.571401358;0.571105301;0.570765138;0.570483387;0.570238352;0.570067346;0.569818258;0.569596231;0.569284499;0.568871081;0.568540394;0.56821543;0.567868471;0.567526042;0.567201674;0.566835165;0.566515446;0.566322803;0.56601131;0.565617919;0.565244317;0.564881682;0.564581513;0.564385772;0.564231336;0.563993096;0.563724577;0.563458323;0.563158274;0.562852085;0.562534511;0.562242031;0.561892509;0.561660588;0.561525226;0.561354816;0.561249435;0.561097324;0.56083107;0.560723841;0.5606938;0.560681403;0.560810626;0.560913563;0.560851216;0.560735822;0.560640275;0.560522676;0.560529947;0.560700953;0.560715973;0.560655832;0.560744584;0.560867012;0.560957611;0.561165094;0.561295569;0.561214089;0.561395466;0.561751306;0.562062979;0.56249094;0.562880993;0.56319803;0.563616812;0.564058423;0.564603329;0.565339923;0.565951228;0.56652534;0.567153633;0.56783241;0.568452179;0.569191635;0.570088446;0.570933521;0.571765184;0.572635353;0.573559463;0.574493229;0.575428247;0.576377034;0.577402472;0.578349471;0.579240143;0.580194175;0.581131816;0.582102656;0.583149374;0.584143817;0.585162401;0.586104572;0.586969256;0.587859511;0.588747025;0.589583874;0.590315044;0.591167748;0.592105031;0.592927217;0.593870819;0.594859719;0.595554054;0.596251965;0.596963644;0.597564816;0.59836179;0.599217355;0.600190759;0.601369321;0.6023826;0.603467584;0.604407132;0.605190873;0.606018186;0.606756389;0.607615829;0.608505726;0.609441876;0.610469639;0.611479044;0.612520993;0.6135481;0.614620924;0.615626812;0.616467357;0.617520094;0.618798196;0.619857013;0.620929658;0.621969044;0.622799635;0.623652518;0.624764204;0.625548124;0.626093805;0.626560688;0.626722753;0.62669009;0.626633286;0.626365244;0.626276374;0.626219332;0.626051366;0.625888765;0.625697374;0.625243366;0.625261664;0.625548482;0.625760734;0.626172841;0.626539111;0.626749516;0.627315402;0.628230512;0.628925681;0.629761755;0.630428672;0.630852103;0.631443322;0.632009685;0.632740736;0.6336115;0.634475589;0.635376692;0.636437714;0.637587667;0.638781488;0.640359819;0.641557693;0.642543793;0.643536329;0.644411504;0.645143986;0.645876706;0.646398306;0.646533608;0.646795452;0.647007227;0.647194982;0.647262096;0.647534668;0.64792335;0.648274243;0.648759007;0.649263024;0.649805486;0.650227368;0.650533795;0.651016831;0.651471138;0.651958287;0.65251255;0.653412044;0.653933167;0.654183567;0.654923975;0.65586859;0.65643549;0.657120168;0.657732546;0.65793258;0.658545375;0.659564912;0.660223842;0.660712421;0.661275506;0.661898077;0.662262142;0.662535548;0.662704527;0.66245383;0.662818193;0.663321555;0.66406703;0.665302873;0.666281104;0.66740793;0.66825366;0.669046938;0.669580996;0.669636965;0.670179963;0.670682371;0.671515405;0.672970593;0.673803747;0.674402595;0.67517525;0.675856948;0.676369727;0.67687887;0.6774863;0.677837789;0.678296149;0.679058671;0.679645121;0.679953635;0.680571139;0.681367576;0.682153761;0.682988882;0.683893085;0.685053408;0.685900688;0.686526835;0.687340736;0.68813169;0.688819647;0.689749241;0.690306187;0.69036293;0.690745175;0.690939844;0.691694736;0.692962825;0.693894684;0.695035517;0.696049511;0.696953952;0.697570384;0.69834888;0.698500633;0.697546661;0.697633386;0.697853327;0.698487818;0.69974792;0.701139927;0.703016281;0.704087913;0.705335677;0.706054747;0.705783725;0.706069767;0.706442714;0.706849277;0.707286417;0.707891583;0.708689511;0.709208131;0.709617615;0.710157096;0.710623085;0.711205781;0.711997032;0.71269238;0.713217258;0.71410799;0.715362191;0.716996968;0.718056858;0.718868434;0.719342887;0.717662871;0.716626644;0.716566801;0.715903461;0.716865003;0.717962205;0.718702734;0.718739152;0.718853176;0.71999687;0.720891178;0.721225977;0.723328769;0.724750578;0.727467537;0.727978051;0.724964976;0.724076927;0.722649157;0.722140193;0.724473238;0.725628138;0.726359665;0.726513684;0.725803673;0.725689232;0.725189328;0.725132585;0.725927234;0.726580143;0.726784587;0.727658927;0.729441226;0.730230033
