1.45711422;1.815888047;1.754508018;1.390476823;1.446210265;1.4867419;1.426561236;1.377574086;1.300800323;1.322918773;1.404232502;1.293904066;1.29090786;1.367295265;1.466127753;1.499967933;1.427026749;1.366965413;1.383635759;1.361721873;1.331752062;1.31494534;1.320188522;1.336075068;1.3563627;1.368890524;1.354173541;1.363536119;1.359925628;1.330220342;1.359446168;1.369126201;1.362084031;1.369009137;1.365801215;1.364874482;1.36305666;1.346460342;1.353429556;1.364997864;1.363126755;1.346825004;1.356748819;1.368364573;1.353676438;1.352254868;1.341139436;1.331775784;1.348822355;1.355701566;1.35007596;1.34213686;1.350312114;1.352492332;1.355690479;1.364705563;1.358026385;1.351985216;1.350953221;1.352635741;1.348896146;1.347481012;1.350459814;1.353182673;1.352381349;1.348096848;1.343498111;1.34601903;1.356779695;1.361804605;1.349753261;1.350293994;1.347290158;1.337739944;1.330993652;1.337313414;1.340146899;1.331566691;1.326265812;1.327206731;1.3304317;1.330006003;1.323125601;1.320530295;1.321642399;1.318229795;1.312933087;1.308880329;1.308252335;1.312353134;1.310197592;1.307121277;1.309404135;1.307624578;1.302012205;1.29748261;1.300351262;1.299764633;1.297376156;1.295271993;1.293159008;1.292322993;1.291286588;1.288689613;1.287270546;1.283930302;1.28066051;1.282301068;1.28055644;1.278924584;1.279279113;1.277507305;1.274766684;1.272103071;1.270440459;1.270013332;1.269447684;1.267898083;1.265233874;1.263839483;1.263118386;1.262133002;1.260179758;1.25940454;1.258687735;1.256406665;1.255170941;1.254284739;1.253410339;1.252687097;1.250316501;1.248688459;1.248985052;1.247466326;1.244878531;1.242578745;1.241937518;1.242108345;1.240484595;1.23754108;1.237424612;1.236918807;1.235473752;1.233451962;1.231844902;1.231327534;1.230754256;1.228410363;1.227515578;1.226264119;1.224344254;1.224538326;1.224587798;1.223406315;1.220904708;1.219147563;1.218341827;1.218213797;1.218111992;1.217237473;1.216138482;1.215214491;1.214081168;1.213195086;1.212994933;1.21344018;1.212174654;1.211087584;1.210475802;1.208904386;1.208237767;1.207792401;1.206834078;1.205947161;1.204302788;1.202260137;1.200582027;1.198271632;1.196781874;1.196020126;1.193515301;1.191241145;1.189671278;1.188634992;1.187218428;1.186127186;1.184797168;1.182070851;1.181350589;1.180827856;1.179541469;1.179916024;1.179137945;1.178549647;1.180081248;1.180108547;1.180356503;1.181406617;1.18227303;1.182429194;1.182257414;1.18181169;1.179455876;1.177063942;1.17431438;1.170066714;1.166795254;1.163781047;1.16086328;1.159256935;1.157688737;1.156387925;1.155700922;1.154546022;1.153131723;1.151404619;1.149120092;1.147554636;1.145649433;1.142831564;1.140594959;1.139289975;1.138050199;1.135822892;1.13472414;1.1338799;1.132356644;1.129513264;1.127222419;1.12571919;1.124772429;1.124438405;1.123917818;1.123062968;1.122215867;1.121362209;1.120244265;1.119035006;1.118864417;1.11866343;1.118261456;1.117824674;1.117525935;1.116940618;1.116150141;1.115796924;1.115495086;1.115055561;1.114385009;1.113475919;1.112990975;1.11259973;1.111468911;1.110044956;1.108702183;1.107483387;1.10589242;1.104063988;1.102152944;1.100232482;1.097902894;1.095573068;1.093358159;1.091047168;1.088389635;1.086101174;1.084444761;1.082050323;1.079812527;1.077856898;1.075991273;1.074443936;1.072912574;1.071190834;1.069268107;1.06777513;1.066437244;1.06492877;1.063853741;1.06234169;1.060598373;1.05956161;1.058151245;1.056662679;1.055360436;1.053995371;1.05254364;1.051136374;1.049892783;1.048417091;1.046824574;1.045317173;1.044133782;1.042676091;1.04140234;1.040534377;1.038768768;1.037174821;1.035930991;1.034660935;1.03305757;1.031754971;1.030842066;1.029337287;1.027959347;1.026718259;1.025403738;1.023763657;1.022413969;1.021412134;1.020304441;1.01882565;1.017215729;1.015723705;1.014431953;1.012918234;1.011333466;1.009982705;1.008520603;1.007253647;1.006157398;1.004800677;1.003482342;1.002155066;1.000710368;0.998992205;0.997742891;0.996562064;0.994609237;0.993339419;0.992242694;0.990886211;0.989283919;0.987911522;0.986594379;0.985078454;0.983614206;0.98241657;0.981163681;0.979248583;0.977874994;0.976411223;0.974583507;0.973370552;0.971930802;0.970216036;0.968517244;0.967377663;0.965972304;0.964249015;0.962890446;0.961287081;0.959667742;0.958216131;0.95660305;0.955124021;0.953640461;0.951900125;0.950019836;0.948497832;0.94725436;0.945563495;0.943523228;0.941757798;0.940537691;0.938919544;0.937030137;0.935141921;0.933565855;0.932193041;0.930711806;0.928970814;0.927031636;0.92550844;0.923938751;0.921997845;0.920605063;0.919113278;0.917431414;0.915751398;0.913956463;0.912168086;0.910423338;0.908636689;0.907267094;0.90597558;0.904332221;0.902170122;0.900613606;0.899227977;0.896927834;0.894857049;0.89315486;0.891671658;0.890049696;0.888461053;0.886732757;0.884803474;0.883215308;0.881457329;0.879645288;0.878148317;0.876483738;0.874837279;0.873271585;0.871617079;0.869971693;0.86815089;0.866206527;0.865055025;0.863645852;0.861848831;0.860024452;0.858528793;0.857001424;0.855407119;0.854094028;0.852194011;0.850436866;0.849248827;0.847596645;0.84560734;0.843736947;0.842380464;0.840718508;0.83911705;0.837691128;0.836263299;0.834698915;0.832985103;0.831264853;0.829953671;0.828143418;0.826243758;0.82480222;0.823066413;0.821503341;0.820076704;0.818408668;0.816488743;0.814892173;0.813693523;0.812212527;0.810701311;0.809230685;0.807755947;0.80597502;0.804282427;0.802773535;0.801347792;0.799690187;0.798076034;0.796617627;0.795214891;0.793580115;0.792124748;0.790930808;0.789272249;0.787390769;0.785718501;0.78448993;0.783067048;0.781529367;0.779892921;0.778170407;0.776561618;0.774963737;0.773368776;0.771880567;0.770123184;0.768527091;0.767257452;0.765665472;0.76405406;0.762546003;0.761080205;0.759096146;0.757421434;0.756041586;0.7544958;0.752975047;0.751409888;0.749758422;0.748053908;0.746573567;0.745248497;0.743884146;0.742201507;0.740412414;0.738934457;0.737897098;0.736344516;0.734644711;0.733012676;0.731551409;0.730223894;0.728809536;0.727262557;0.72573936;0.724619865;0.723441899;0.721826673;0.719720066;0.71809262;0.716881037;0.715711117;0.714110851;0.712631762;0.711113632;0.709317088;0.707583964;0.706167996;0.704891503;0.703374207;0.701700747;0.700178623;0.698816478;0.697365224;0.695981503;0.694415987;0.692703366;0.691298068;0.689620256;0.688070774;0.686844826;0.685333014;0.683456421;0.681773245;0.680616856;0.678983986;0.677369952;0.675973237;0.674698293;0.67272836;0.671033263;0.669780195;0.668533981;0.666940272;0.665397286;0.664037406;0.66267693;0.661365807;0.659947574;0.658384621;0.656835437;0.655405819;0.654093027;0.652840912;0.651563466;0.650290132;0.649020851;0.647715032;0.646248937;0.644781351;0.643404365;0.642116249;0.640717387;0.63925463;0.637961626;0.636960685;0.635646105;0.634240329;0.632912874;0.631649315;0.629733205;0.627995074;0.626672626;0.625496745;0.624309778;0.622781396;0.621133983;0.619925618;0.618489087;0.617202997;0.616198003;0.615223646;0.613943994;0.612562537;0.611059666;0.609149158;0.60806638;0.607194126;0.606043756;0.604781985;0.60346216;0.602032065;0.600547135;0.599238217;0.597993612;0.596654773;0.595273733;0.594258308;0.593142331;0.591972172;0.590892017;0.58996892;0.589240432;0.588227153;0.586707652;0.585233271;0.584379256;0.583640099;0.582524061;0.581288099;0.580434561;0.579794228;0.579077244;0.578233063;0.577380061;0.576386511;0.57519877;0.574080765;0.573090672;0.572241902;0.571437716;0.570411325;0.569129527;0.567917645;0.566964507;0.56593883;0.564943254;0.563910604;0.562766254;0.561511636;0.560094893;0.558590293;0.557067454;0.555537641;0.554322481;0.553146899;0.551862776;0.550767303;0.549500465;0.548097074;0.546736658;0.545629084;0.544301152;0.543170691;0.542266369;0.54095;0.539370298;0.5378775;0.536580026;0.535261929;0.533847928;0.532181561;0.530591428;0.529641211;0.528382719;0.526908696;0.525301456;0.540743232;0.539671779;0.538609207;0.537510633;0.536389232;0.535233259;0.534144044;0.533060372;0.531970978;0.530936122;0.52984935;0.528699815;0.527585566;0.526468575;0.525402665;0.52437222;0.523325503;0.522350788;0.52126807;0.520188391;0.51918292;0.518146574;0.51712507;0.516085505;0.514991283;0.513988614;0.513047636;0.512078524;0.511191487;0.510207415;0.509182572;0.508083999;0.506994367;0.505930364;0.504876018;0.503864408;0.502866209;0.501901448;0.50091517;0.499981105;0.498958677;0.497828722;0.496823341;0.49583739;0.494844168;0.493895322;0.493019313;0.492011458;0.490951866;0.489992708;0.489036441;0.488051951;0.487100095;0.486181796;0.485275984;0.484346271;0.48346442;0.482563078;0.481619745;0.480703771;0.479808837;0.478913844;0.478030264;0.477113247;0.476193488;0.475277126;0.47440955;0.473561615;0.472730577;0.471925378;0.471108854;0.470295101;0.469443977;0.468553513;0.46773383;0.466905087;0.466145456;0.465419143;0.464684457;0.463956684;0.463168591;0.462369502;0.461615413;0.460829616;0.460054666;0.459377855;0.458693624;0.458017915;0.457414329;0.456754148;0.45606029;0.455359191;0.454692721;0.454003304;0.4533149;0.452646464;0.451996565;0.451324075;0.450683683;0.450076431;0.449443609;0.448836118;0.448249996;0.447676182;0.447123438;0.446537644;0.445940137;0.445308357;0.444678426;0.44404617;0.443432599;0.442817092;0.442188799;0.441598266;0.441014796;0.440468132;0.439949811;0.439413905;0.438906223;0.438413352;0.43794933;0.437515348;0.437093616;0.436685026;0.436295301;0.435923159;0.435610533;0.43536365;0.435205221;0.435071826;0.434959412;0.434939772;0.434957087;0.435100198;0.435335308;0.435557693;0.435803145;0.436089277;0.436361969;0.436746776;0.437236547;0.437719345;0.438269854;0.438806564;0.439309686;0.439789146;0.440235466;0.44067651;0.441136211;0.441537559;0.441875905;0.442145556;0.442333162;0.442475796;0.442573726;0.442646503;0.442652673;0.44259885;0.442487985;0.442312658;0.442109078;0.441854835;0.441560775;0.441257358;0.440938801;0.440598637;0.440284997;0.439943016;0.439567626;0.439192802;0.438827634;0.438475788;0.438139796;0.437801212;0.437472641;0.437133461;0.436803669;0.436456203;0.436088264;0.435731322;0.435361952;0.435004413;0.434669912;0.434342861;0.434004962;0.43364042;0.433243245;0.432850152;0.432447016;0.432033241;0.431608588;0.431198984;0.430724055;0.43019259;0.429695457;0.42918694;0.428653568;0.428133011;0.427589685;0.426995575;0.426416218;0.425865114;0.425293386;0.424724758;0.424162716;0.423576891;0.422998428;0.422385097;0.421738982;0.421100676;0.420453191;0.419783622;0.419116676;0.418421507;0.417678922;0.416964561;0.416263223;0.415533185;0.414818108;0.414060652;0.413264453;0.412445098;0.411607087;0.410793632;0.410030633;0.409309953;0.408556998;0.407821536;0.407098264;0.406341255;0.405648232;0.405014962;0.404367626;0.403732896;0.403105348;0.402484208;0.401878029;0.401284814;0.400700599;0.400116563;0.399563432;0.399050564;0.398518026;0.397988409;0.397467464;0.39693141;0.396368891;0.395829052;0.395282775;0.394776165;0.394292533;0.393802881;0.393335819;0.392871767;0.392401934;0.391941518;0.391487837;0.391058415;0.390638471;0.390226483;0.389853179;0.38946262;0.389043808;0.388655066;0.388290256;0.387946397;0.387587458;0.387249738;0.386901081;0.386507452;0.386199087;0.385940552;0.385672688;0.385439783;0.385207325;0.384971946;0.38475129;0.384549797;0.384358525;0.384180963;0.383998722;0.383832097;0.383661181;0.383451641;0.383293569;0.383158267;0.383051872;0.382948995;0.382891357;0.38279146;0.382652164;0.382590264;0.38253507;0.382529199;0.382601827;0.382640034;0.38266924;0.382738113;0.382820755;0.38292256;0.383037269;0.383199543;0.383377582;0.383596689;0.383876234;0.384167016;0.38448441;0.384816051;0.385159165;0.385535687;0.385935843;0.38635385;0.386799932;0.387259394;0.387789875;0.388351738;0.38896656;0.389668971;0.390344054;0.391021103;0.391746342;0.392461151;0.393268794;0.394170791;0.395059556;0.395986617;0.396939367;0.397916675;0.398891836;0.399891227;0.400910288;0.401909888;0.402962923;0.404052317;0.405157298;0.406309068;0.407453746;0.408618778;0.409815401;0.411008686;0.412221134;0.413405925;0.4145751;0.415773243;0.416989714;0.418167233;0.419358015;0.420528859;0.421643317;0.422789246;0.42395848;0.425118536;0.426295608;0.427433759;0.428525448;0.42966494;0.430787414;0.4319354;0.433139294;0.434400678;0.435714692;0.437080324;0.43852365;0.440090328;0.441827774;0.443679601;0.445691645;0.447856545;0.450196743;0.452657223;0.455336094;0.458183616;0.461304009;0.464633554;0.468230098;0.472038239;0.47624293;0.480742216;0.485611588;0.490877509;0.496553153;0.502653122;0.509094834;0.51597178;0.523223877;0.530981123;0.539038777;0.547469974;0.55637151;0.565533996;0.5750193;0.584747612;0.594640315;0.604693055;0.614978075;0.625151277;0.635536373;0.645798266;0.656037927;0.666059911;0.676067829;0.685782194;0.695226848;0.704323828;0.713157475;0.721692443;0.72983259;0.73758167;0.744949937;0.751969874;0.758495271;0.764625013;0.770338714;0.775735259;0.780657172;0.785192072;0.789429009;0.793275774;0.796794057;0.799993515;0.802915394;0.80566889;0.808135569;0.810310423;0.812303782;0.814092278;0.815707624;0.817106605;0.818344951;0.819408953;0.820340335;0.821048737;0.821723998;0.822313845;0.8227579;0.823099256;0.823296309;0.823327541;0.82330215;0.823146999;0.822941124;0.822645664;0.822314918;0.821900666;0.821480095;0.821036518;0.820534229;0.819986105;0.819417775;0.818796694;0.818178356;0.817527592;0.816797018;0.816062987;0.815254271;0.814353824;0.813409328;0.812385857;0.811219513;0.809955299;0.808640778;0.807205319;0.805660903;0.804041982;0.802289009;0.800380111;0.798399091;0.79627651;0.794012964;0.791689098;0.789251685;0.786747813;0.784164548;0.781528711;0.778809786;0.776047051;0.773203671;0.770395756;0.767574787;0.764700055;0.761807144;0.758892119;0.755914927;0.752951324;0.749998987;0.747042954;0.744062424;0.741078496;0.738074839;0.735109687;0.732170522;0.729210794;0.726262748;0.723324537;0.720375121;0.717415571;0.714483917;0.711530328;0.708610237;0.705667496;0.70266825;0.699727356;0.696787119;0.693832695;0.690936744;0.688037634;0.685145617;0.682283938;0.679418206;0.676612318;0.673839748;0.671046853;0.668285847;0.665510654;0.662743032;0.660013616;0.657306254;0.654656351;0.652006745;0.649367809;0.646717548;0.644065559;0.641445339;0.638828397;0.636232674;0.63365978;0.631136477;0.628623188;0.626137853;0.623692274;0.621287286;0.618925452;0.616543949;0.614191592;0.611856878;0.609497547;0.607182264;0.604925394;0.602648675;0.600370824;0.598105907;0.59582597;0.593606412;0.59141326;0.589247584;0.587110937;0.585027695;0.582980573;0.580955565;0.578990757;0.577038407;0.575102627;0.573171556;0.571230948;0.569354594;0.567484677;0.565692008;0.563976705;0.562299907;0.560688913;0.559083819;0.557499111;0.555936038;0.554389119;0.552879691;0.55142349;0.549996614;0.548575401;0.547143936;0.545718431;0.544280767;0.542830288;0.541413367;0.539971352;0.538545132;0.537177742;0.535779536;0.534389377;0.533033848;0.531665266;0.530305326;0.528946638;0.52759856;0.526252925;0.524900615;0.523594558;0.522303641;0.521023631;0.519779265;0.518529713;0.51730907;0.51612401;0.514901757;0.513698876;0.512507379;0.511286139;0.510112762;0.508956611;0.50780952;0.506702483;0.505590081;0.504482925;0.503431916;0.502443314;0.501479208;0.500545442;0.499618828;0.498678267;0.497737676;0.496788472;0.495856851;0.494932801;0.494009614;0.493119866;0.492254436;0.491397023;0.490542144;0.489726216;0.488949776;0.488162458;0.487401336;0.486614108;0.485807717;0.485028267;0.484252214;0.483478427;0.482708216;0.48196876;0.481236845;0.480522245;0.479839534;0.479160309;0.478483498;0.477818221;0.477177382;0.476529986;0.475881666;0.475234509;0.474581331;0.473970085;0.473365754;0.472795099;0.472257078;0.47175315;0.471256167;0.470825285;0.470460355;0.470104337;0.469786346;0.469478279;0.469188273;0.46890828;0.468683749;0.468466073;0.468271613;0.468134284;0.468044281;0.468053669;0.468098372;0.468178242;0.468302995;0.468429029;0.468584299;0.468767732;0.468994558;0.469260484;0.469602406;0.469995081;0.470399469;0.470896035;0.471432626;0.471987665;0.472625762;0.473285854;0.473990262;0.474785089;0.475639343;0.476553202;0.477494538;0.478463203;0.47946611;0.480569005;0.481653869;0.482768387;0.48391211;0.48507452;0.48621735;0.487406999;0.488567203;0.489709526;0.49080655;0.491890818;0.492927015;0.493903607;0.494847059;0.495738089;0.496628881;0.497444808;0.498321146;0.499204189;0.500129879;0.501124084;0.502092779;0.503094554;0.504063606;0.504998088;0.505947888;0.506875455;0.507842422;0.508853495;0.509829342;0.510782659;0.511789203;0.512793899;0.513827026;0.514917314;0.516008317;0.517120481;0.518202186;0.519311726;0.520372152;0.521408677;0.522378862;0.52334708;0.52418673;0.524922431;0.52560693;0.526210308;0.526745856;0.527216494;0.527609229;0.527881563;0.528198183;0.528476298;0.528738439;0.528977692;0.529267132;0.529533863;0.529848576;0.530204713;0.530629873;0.531065702;0.531619608;0.532228947;0.532867253;0.53358525;0.534449935;0.535327137;0.53630054;0.537262678;0.538232684;0.539218783;0.540266156;0.541243255;0.542188287;0.543130934;0.544044554;0.544921279;0.545801461;0.546632767;0.547401428;0.548145533;0.548876166;0.549547076;0.550181031;0.550741076;0.551226735;0.551683009;0.552068174;0.552434266;0.552736759;0.553101063;0.553448677;0.55383116;0.554282606;0.554672897;0.555035532;0.555416763;0.555800915;0.55615133;0.556516707;0.556791008;0.557020187;0.557299972;0.557538569;0.557795584;0.558079898;0.558282018;0.558481216;0.558661699;0.558829129;0.559031665;0.559131563;0.559138894;0.559173286;0.559133112;0.559135258;0.559199095;0.559204698;0.559212625;0.587338567;0.587290943;0.587124288;0.586970806;0.586664915;0.586247027;0.585747778;0.585222781;0.584538281;0.583738208;0.582779646;0.581854641;0.580759823;0.579814732;0.578854203;0.577997148;0.577143252;0.576429725;0.575821221;0.575280547;0.574802041;0.574401617;0.574096441;0.573852599;0.573685646;0.573658288;0.573616564;0.573561549;0.573640645;0.573707759;0.573832214;0.574103594;0.574479997;0.574909568;0.575430751;0.576029718;0.576653481;0.577423632;0.578211367;0.579293966;0.58057642;0.581809938;0.583206058;0.584670484;0.586425483;0.588304698;0.590409935;0.592800915;0.595337451;0.597956479;0.600780487;0.603874207;0.60732305;0.611094117;0.615218043;0.619602919;0.62425679;0.629298925;0.634686053;0.640432239;0.646559238;0.65321666;0.660261452;0.667850554;0.675873697;0.684419215;0.693540871;0.70329988;0.713508546;0.724342287;0.735840261;0.748029709;0.760925651;0.774273157;0.788092792;0.802423239;0.817354202;0.832366288;0.847888768;0.863902748;0.879930675;0.896156669;0.912490308;0.928774416;0.945009232;0.961060047;0.976946175;0.992776513;1.00844872;1.023461223;1.037959218;1.05175674;1.064959884;1.077561021;1.089250803;1.100149751;1.110474944;1.12006557;1.129104972;1.137465119;1.14522326;1.152130961;1.158435941;1.164040804;1.16909349;1.173842788;1.178218246;1.182220459;1.185786366;1.188976765;1.191710114;1.194057345;1.196326017;1.198688865;1.200777054;1.202592969;1.204275966;1.205488443;1.206640601;1.208046079;1.209079146;1.209736347;1.210486054;1.211192966;1.211661339;1.212021589;1.212390542;1.212858558;1.212884426;1.212731957;1.212435603;1.211933494;1.21089375;1.210235476;1.20968163;1.208991647;1.208367109;1.207669616;1.206614852;1.20556128;1.204573274;1.203283191;1.202010632;1.200775146;1.199388385;1.197880507;1.19629848;1.194551587;1.19283855;1.191260576;1.18966794;1.188155651;1.186640263;1.185007691;1.183129072;1.181474805;1.179985166;1.178303003;1.176693797;1.174943089;1.173088074;1.171022534;1.168979168;1.166849136;1.164668322;1.162332892;1.160152555;1.158017397;1.155814052;1.153730273;1.151462913;1.149116874;1.146583557;1.144158363;1.141623974;1.139131904;1.13690567;1.134397507;1.131773949;1.129182816;1.126436472;1.123801351;1.121241808;1.118708968;1.116214991;1.113682628;1.11122489;1.108651757;1.10608983;1.10350132;1.1009233;1.098374724;1.095742941;1.093079448;1.090365648;1.087579727;1.084773183;1.08186841;1.079069853;1.076278567;1.073505402;1.0708009;1.068162084;1.065558195;1.062969327;1.06046629;1.058112621;1.055639863;1.053163648;1.050686717;1.048132658;1.045629501;1.043094754;1.04067564;1.038339496;1.036062241;1.033810139;1.031656265;1.02950418;1.027393699;1.025249243;1.023088098;1.021020174;1.018876791;1.016892672;1.015087485;1.013289571;1.011543274;1.009882092;1.008185267;1.006460547;1.004871488;1.003295541;1.001840591;1.000500679;0.999228179;0.998161852;0.996936858;0.995645463;0.994457364;0.993282259;0.992027044;0.990866959;0.989848733;0.988750696;0.9875862;0.986492038;0.985533178;0.984396398;0.983246803;0.981978059;0.980586171;0.979140997;0.977687657;0.976068258;0.97433424;0.972496688;0.970564842;0.968446732;0.966393948;0.9643206;0.962167859;0.960042238;0.957736611;0.955211997;0.952795684;0.950279474;0.947840571;0.945416689;0.943100929;0.940847874;0.938652813;0.936437666;0.934342146;0.932123363;0.929783523;0.927570999;0.925356865;0.92322284;0.921123028;0.919128299;0.917214155;0.91534543;0.913628638;0.911858976;0.910091579;0.908341289;0.906571805;0.904803634;0.902986288;0.901093721;0.899328589;0.897559047;0.895850956;0.894239843;0.892637789;0.891083181;0.889504194;0.887908876;0.886395991;0.884932995;0.883416235;0.881987691;0.880647242;0.879318297;0.878059506;0.876685321;0.875237882;0.873936951;0.872608364;0.871336699;0.870237112;0.869093716;0.867893696;0.866740942;0.865579903;0.864521086;0.863496363;0.862550199;0.861640453;0.860874653;0.86000371;0.859131575;0.858226776;0.85723263;0.85637778;0.855514348;0.854756832;0.854099214;0.853525162;0.853036106;0.852580249;0.852296829;0.851912737;0.851451278;0.851062357;0.850754142;0.850436866;0.850231349;0.850200355;0.850069821;0.849970698;0.84980011;0.849533558;0.849398196;0.849304378;0.849185884;0.849137664;0.849070072;0.848869979;0.848834515;0.848922968;0.849065602;0.849112093;0.849048495;0.849125683;0.849130034;0.849272788;0.849689484;0.849800944;0.849842966;0.849731266;0.849394917;0.849171042;0.848852217;0.848612428;0.848556101;0.84828192;0.847867012;0.847483337;0.847009301;0.846512437;0.846007645;0.84558177;0.844922662;0.844190538;0.843478143;0.842675626;0.841915905;0.841221571;0.840402901;0.839571953;0.8385939;0.837384164;0.836404145;0.835382819;0.834453642;0.833817899;0.832939088;0.831938744;0.83096683;0.829930425;0.828844607;0.82783854;0.826833546;0.825994909;0.825159848;0.824309468;0.823545337;0.822685063;0.82170397;0.820890486;0.820198834;0.819378912;0.818517864;0.817729294;0.816847742;0.816092074;0.815550685;0.814892411;0.81415534;0.81351769;0.812869728;0.81228435;0.811883271;0.811318338;0.810678124;0.810284555;0.809774876;0.809338152;0.809090257;0.808974504;0.808929026;0.809020281;0.809203088;0.809536576;0.809789479;0.810065746;0.810462594;0.810781777;0.811359942;0.812154353;0.813043058;0.814085245;0.815199137;0.816534936;0.817795455;0.81898737;0.820408165;0.821926057;0.823490143;0.825301945;0.827021658;0.828786731;0.830692589;0.832738042;0.834982276;0.837226152;0.839596152;0.8419348;0.844299495;0.846708298;0.849188566;0.851592779;0.853980362;0.856450677;0.8588866;0.861406088;0.864091277;0.86666584;0.869216681;0.8717556;0.874360144;0.876783431;0.879071832;0.881366789;0.883536696;0.885694027;0.887924969;0.890017211;0.892033756;0.893874049;0.895659506;0.897392988;0.899219573;0.901208878;0.90311712;0.905084968;0.90706706;0.909036219;0.910998344;0.913002014;0.915088713;0.91726023;0.919179261;0.92112726;0.922937393;0.92434746;0.926079392;0.927972138;0.929819524;0.931636035;0.933614075;0.935651004;0.937779725;0.940229833;0.942458749;0.944696188;0.946790814;0.948589861;0.950558305;0.952521026;0.954504788;0.956907034;0.958785176;0.960500598;0.961886048;0.962819099;0.963443339;0.964034796;0.964309752;0.96435672;0.964070618;0.963932574;0.963500857;0.963371098;0.963390768;0.963469207;0.963646054;0.963806629;0.964010119;0.964327216;0.964422226;0.965234458;0.966641128;0.967796087;0.969284832;0.970722198;0.971820116;0.973494589;0.97585243;0.977723539;0.979462743;0.9814955;0.983469844;0.985543191;0.988104105;0.990335941;0.992178857;0.994338691;0.996721029;0.9989205;1.001399398;1.003385782;1.00497508;1.006486416;1.00747776;1.008752108;1.010312796;1.011436224;1.012614012;1.01335752;1.013042569;1.013442755;1.014053345;1.014649153;1.015790462;1.016671538;1.017064452;1.017841697;1.019030571;1.019928694;1.020666361;1.021698594;1.02286005;1.02363193;1.025056005;1.027054191;1.028746963;1.030598044;1.032106876;1.033496737;1.034808159;1.035737872;1.037231207;1.039091587;1.040454388;1.041852951;1.043160677;1.044020772;1.045202613;1.04660356;1.048007727;1.049317002;1.050933957;1.053021789;1.054500937;1.055549264;1.057395339;1.05933547;1.061300159;1.064131618;1.065973759;1.066830516;1.068763852;1.071221352;1.072973371;1.074926257;1.076537848;1.077424526;1.078517318;1.079659224;1.080808401;1.081295848;1.083097458;1.086187243;1.088066578;1.09036386;1.091602921;1.091156244;1.09213531;1.09299624;1.094884396;1.098616362;1.100195408;1.100509644;1.103109241;1.105673432;1.108275175;1.113389969;1.116708755;1.118601561;1.120006442;1.121123195;1.122094989;1.120752096;1.122371674;1.12621212;1.128814697;1.132501364;1.134606481;1.134987235;1.136901617;1.138545036;1.141681433;1.147118211;1.150163293;1.153110504;1.154599786;1.153104305;1.154926538;1.157816172;1.160629511;1.165377617;1.16821897;1.170216084;1.171704888;1.172210336;1.173357725;1.173485518;1.175798059;1.179580688;1.183681369;1.189687371;1.192672253;1.195042253;1.196546316;1.195516825;1.195798278;1.196119547;1.193439126;1.197918534;1.200945854;1.201250672;1.203344584;1.20320189;1.205456257;1.207793951;1.20683074;1.209112048;1.210819006;1.213960171;1.221589446;1.226104498;1.22707057;1.225244522;1.221142054;1.218020201;1.216434598;1.216226697;1.217296243;1.219447374;1.226892591;1.228992939;1.226274967;1.227607608;1.227563024;1.227470398;1.23312223;1.234688997;1.230244637;1.229664207;1.228090048;1.230260849;1.23804307;1.243196487;1.252096653;1.256380677;1.254709125;1.254613996
0.678876162;0.67778641;0.693347573;0.707914591;0.693418682;0.699903905;0.720003784;0.71431917;0.700857282;0.691695213;0.688835025;0.6859864;0.688969433;0.694688499;0.700261354;0.707186878;0.704824924;0.6949839;0.68589586;0.695736587;0.69036001;0.67941469;0.692879617;0.700373352;0.698388934;0.692443907;0.69350487;0.693813205;0.69170922;0.688821375;0.691737413;0.69268018;0.691904008;0.691969097;0.689180851;0.686345875;0.685663879;0.688186407;0.690613687;0.690059423;0.687063396;0.687416017;0.689685225;0.690757811;0.688817084;0.688817024;0.688220561;0.687304914;0.687664151;0.686334193;0.684880853;0.684799612;0.686819196;0.685412645;0.684301496;0.685944557;0.683065832;0.682537079;0.684727728;0.686680496;0.684790134;0.684063017;0.685172617;0.684093177;0.682264328;0.682116985;0.68387419;0.682486892;0.682689846;0.683337212;0.682187378;0.682050467;0.682045639;0.681735158;0.68126142;0.681858897;0.681253135;0.679209232;0.680214345;0.67934978;0.678269029;0.679186523;0.677954614;0.67705524;0.676989913;0.67667526;0.675622106;0.6751827;0.67588979;0.676669061;0.675846457;0.674796164;0.674974561;0.67432338;0.673877358;0.673989117;0.674365759;0.673721194;0.673193693;0.673258185;0.672745764;0.672191322;0.671764433;0.671474457;0.671132267;0.670481026;0.669898272;0.670083284;0.669751704;0.669339836;0.669138253;0.668723404;0.667973518;0.667389035;0.667397082;0.66712898;0.66677916;0.666332126;0.665629506;0.665626526;0.665634096;0.665068865;0.664028704;0.663795233;0.663806379;0.663104773;0.662753761;0.662568331;0.662321568;0.661840737;0.661580205;0.66137594;0.661028504;0.660582125;0.659929454;0.659261525;0.658846319;0.658480525;0.658033729;0.657536983;0.65720129;0.65688473;0.656480432;0.655975342;0.655630469;0.655093193;0.654563129;0.654445231;0.653957844;0.65343833;0.653183818;0.65325892;0.652839601;0.652193785;0.651788831;0.651512384;0.650885522;0.650305688;0.65065074;0.649965167;0.649294257;0.649280012;0.648841977;0.648513019;0.648293674;0.648038268;0.647835433;0.64743489;0.646896243;0.646587551;0.64622736;0.645928383;0.645793915;0.645785391;0.645146728;0.644273877;0.64397788;0.643449068;0.643052042;0.642841578;0.642303288;0.641686261;0.640929699;0.640068293;0.639764428;0.639638066;0.639313877;0.638514876;0.6378389;0.63739115;0.637123466;0.636874914;0.63653791;0.636330485;0.636446536;0.636217892;0.636086702;0.636096418;0.635814071;0.635611355;0.635622144;0.635667384;0.63481319;0.634015501;0.633363485;0.632508874;0.63171804;0.631004453;0.630441785;0.630261421;0.62970686;0.629241824;0.629374444;0.629107535;0.628757477;0.62846005;0.628150582;0.627872765;0.627216756;0.62609154;0.625312269;0.624688327;0.624219656;0.623918056;0.623427212;0.623053372;0.622714102;0.621740162;0.621042967;0.620769143;0.62079519;0.620917082;0.620867848;0.620595217;0.620217502;0.619818985;0.619286895;0.618651748;0.618276894;0.618027925;0.61790365;0.617870867;0.617526829;0.617199719;0.616945207;0.616483152;0.616308451;0.616097152;0.615590334;0.61526233;0.61509037;0.614897192;0.614441514;0.613870621;0.613243103;0.612615347;0.612054229;0.611484349;0.610883594;0.610235572;0.609453559;0.608754873;0.608139753;0.607393384;0.606466234;0.605778813;0.605488896;0.604856789;0.604236901;0.60358566;0.602753162;0.602184117;0.601762474;0.601300716;0.600594282;0.599955678;0.599471509;0.599108279;0.598681152;0.597999394;0.59728241;0.597002089;0.596585512;0.596108258;0.595631123;0.594924808;0.59442848;0.594020367;0.593446493;0.593123436;0.592669904;0.592013478;0.591483474;0.590917766;0.590554476;0.590429842;0.589682221;0.589063823;0.588625908;0.588029385;0.587412894;0.586945236;0.586658299;0.586372972;0.585762322;0.585019171;0.584439695;0.583918154;0.58344382;0.5831213;0.583083391;0.582369328;0.581496239;0.580928683;0.580414474;0.579868197;0.579319835;0.578800678;0.577934146;0.577400506;0.57735306;0.577255845;0.576540589;0.575796187;0.57549125;0.574810088;0.574121416;0.573583305;0.57319504;0.572671056;0.572194993;0.571825147;0.571351171;0.570758462;0.570132971;0.569577157;0.569100559;0.56876862;0.568390489;0.567642033;0.567070007;0.566540658;0.56599611;0.565772474;0.565192103;0.56443584;0.563934803;0.563711047;0.563256264;0.562542021;0.561996937;0.561349809;0.560715735;0.560189128;0.559643447;0.559126556;0.558604896;0.558048427;0.557642937;0.557130754;0.556511164;0.556080699;0.555376232;0.554676652;0.55421865;0.553697705;0.553099811;0.552416384;0.551696539;0.551271439;0.550931871;0.550427258;0.549533486;0.549023867;0.548607171;0.547941625;0.547360599;0.546743214;0.546142995;0.545661926;0.545028985;0.544431031;0.543906271;0.543246031;0.54274708;0.542323768;0.541803956;0.54101491;0.540553093;0.540091515;0.538971305;0.53827405;0.537813604;0.537328959;0.536652505;0.536170363;0.535595059;0.534713864;0.534062207;0.533415914;0.53283453;0.532458901;0.531864643;0.531215549;0.530632913;0.530104756;0.529440999;0.528617144;0.527796268;0.527562559;0.527193427;0.526525199;0.525729895;0.525172055;0.524574637;0.523973644;0.523768723;0.523087084;0.522466183;0.522210956;0.521336317;0.520386875;0.519680917;0.519309044;0.518615305;0.517992377;0.517570913;0.517181098;0.516715825;0.516017914;0.515179038;0.514777422;0.514025927;0.513207972;0.512748361;0.512138665;0.511771798;0.511475146;0.5107342;0.509676278;0.509027123;0.508854508;0.508250296;0.507619679;0.507155657;0.506818771;0.506019533;0.505270183;0.504709125;0.50425142;0.503621697;0.503045678;0.502589405;0.502124131;0.501451731;0.500901818;0.500525415;0.49969101;0.498895794;0.498368621;0.498096377;0.497566849;0.496869206;0.49616006;0.495592296;0.49500066;0.494420618;0.493840963;0.493190646;0.492603958;0.492163569;0.491811872;0.491240352;0.490700364;0.490242779;0.489764959;0.488820106;0.48813054;0.48774299;0.487291068;0.486669242;0.48602432;0.485363275;0.484552473;0.484097034;0.483799785;0.483383685;0.482685506;0.481859863;0.481316268;0.481211245;0.480671108;0.480036408;0.479440123;0.478897244;0.478357792;0.47791642;0.477476567;0.476840824;0.476577312;0.476283759;0.475623637;0.47457701;0.473944664;0.47369346;0.473468751;0.472665161;0.47212851;0.471707106;0.471037537;0.47034359;0.469721496;0.469200194;0.468745917;0.46829468;0.467816859;0.467303574;0.466757149;0.466100991;0.465465486;0.464943737;0.464526832;0.46370399;0.463012248;0.46275273;0.462292641;0.461607099;0.460990995;0.460619241;0.45993191;0.459219933;0.458759636;0.458584338;0.457707882;0.456942052;0.456480682;0.456045568;0.455412418;0.454880655;0.454527885;0.454166591;0.453599244;0.452969223;0.45236674;0.451757401;0.451231509;0.450840473;0.450508565;0.449976355;0.449556857;0.449246317;0.448943943;0.448539227;0.447937369;0.447310835;0.446816653;0.446260333;0.445685893;0.445359886;0.445363283;0.444681466;0.44397369;0.443481863;0.44308266;0.442186981;0.44152692;0.441102207;0.440472424;0.440214396;0.43963331;0.438823789;0.438493103;0.437976122;0.437524796;0.437194765;0.436769217;0.436357439;0.436031669;0.435604244;0.434680969;0.434173405;0.433856934;0.433523744;0.433265716;0.43289271;0.432312518;0.431574613;0.430895895;0.430410355;0.429867297;0.429304928;0.429380089;0.429164648;0.428688884;0.428214401;0.427944511;0.427720606;0.427455366;0.427056521;0.426383972;0.426320255;0.426158905;0.425402254;0.424964994;0.42487824;0.42490831;0.424825221;0.424649805;0.42454502;0.424253434;0.423610926;0.422913581;0.422727913;0.422826201;0.422759116;0.42221117;0.421566725;0.421106517;0.420840561;0.420288265;0.420066416;0.41997683;0.419687033;0.419091135;0.418120712;0.417283148;0.416806757;0.416154355;0.41565156;0.415138006;0.414534897;0.414066821;0.413369566;0.412792236;0.412418664;0.411759168;0.411344945;0.411132634;0.410917193;0.410439521;0.409375191;0.408565313;0.40822348;0.407713056;0.407386303;0.406777412;0.405938387;0.405398846;0.404882967;0.403906852;0.402938515;0.416047305;0.415632874;0.415174633;0.414764494;0.414339155;0.413874537;0.413442761;0.413064748;0.412626088;0.412128687;0.411689609;0.411280751;0.410840392;0.410375297;0.409968942;0.409536958;0.409155965;0.408845812;0.408583641;0.408225447;0.407895327;0.40752691;0.407108605;0.406707138;0.40629068;0.405913025;0.405560166;0.405183822;0.404837787;0.404448301;0.404018104;0.403578907;0.403163373;0.402775139;0.402348429;0.401940823;0.401560664;0.401191086;0.40079388;0.400430202;0.400040805;0.399597973;0.399213135;0.39885205;0.398484468;0.398133337;0.397774577;0.397443831;0.397121191;0.39675343;0.39635101;0.395904332;0.395484626;0.395126432;0.394863397;0.394511729;0.3941513;0.393781692;0.393325746;0.392957866;0.392631114;0.392371625;0.39203918;0.391700029;0.39136523;0.390978873;0.390633792;0.390307933;0.389998823;0.38972044;0.389439583;0.389202476;0.388927013;0.388626069;0.388347834;0.388074845;0.387799323;0.387525141;0.387231886;0.38694185;0.386649311;0.386349589;0.386080533;0.385823488;0.385591716;0.385391563;0.385190368;0.384973645;0.384729326;0.384511083;0.384306759;0.38408336;0.383864999;0.383670926;0.383419186;0.383180529;0.38300699;0.382792413;0.382598519;0.382448852;0.382263362;0.382148176;0.382070214;0.381943494;0.381820738;0.381649643;0.381420553;0.381164938;0.380955607;0.38075906;0.380606204;0.380455285;0.380281717;0.380095571;0.379887849;0.379705936;0.379554927;0.379402608;0.379260093;0.379140735;0.379060566;0.379007638;0.37893647;0.378874779;0.378810495;0.378726214;0.378687412;0.378751695;0.378867865;0.37900576;0.379145503;0.379298449;0.379459858;0.379696697;0.380026609;0.380353093;0.380705088;0.381103575;0.381533861;0.381986022;0.382501066;0.383007348;0.383536875;0.38404426;0.384546876;0.385012925;0.385467112;0.385887295;0.386277527;0.386678368;0.387050211;0.387376726;0.387632221;0.387840241;0.388017893;0.388133317;0.388230383;0.388305962;0.388345718;0.388343513;0.38830474;0.388227224;0.388158441;0.388030201;0.3878811;0.387743741;0.387629211;0.387528121;0.387428641;0.387335509;0.387208581;0.387078732;0.386923581;0.386794448;0.38667509;0.386543185;0.386413157;0.386284024;0.386146665;0.386008024;0.385879874;0.385741174;0.385572881;0.385411054;0.385233998;0.385045379;0.384887576;0.384736538;0.384571582;0.384420782;0.384239435;0.384036869;0.383830965;0.383614421;0.383393764;0.383152544;0.382917583;0.382685751;0.382451624;0.382207423;0.381985635;0.381757498;0.381526321;0.381321281;0.381104767;0.380889505;0.380651504;0.380385756;0.380086511;0.379800975;0.379492074;0.379194587;0.378909111;0.37860471;0.378288478;0.37797901;0.377662361;0.377346456;0.377048761;0.376727104;0.376398861;0.376049757;0.375676334;0.375298649;0.374965191;0.374652207;0.37432763;0.374025613;0.373719424;0.373390645;0.373087376;0.372805595;0.372528374;0.372259617;0.371989727;0.371745706;0.371482134;0.371199459;0.370924294;0.370631427;0.370363951;0.370124906;0.36986798;0.36961019;0.369371235;0.369123131;0.368852884;0.368620694;0.36840573;0.368200898;0.368010879;0.367831707;0.367670745;0.367507219;0.367364138;0.367202133;0.367013723;0.366860271;0.366727084;0.366580307;0.366469622;0.366321057;0.366136104;0.365943015;0.365774572;0.365599811;0.365443081;0.365311742;0.365164846;0.365005195;0.364874572;0.364758849;0.364640146;0.364526093;0.36443302;0.364345074;0.364267945;0.364225924;0.364165723;0.364098877;0.364034027;0.363979876;0.36390692;0.363783211;0.363721639;0.363690138;0.363660991;0.363628477;0.36362803;0.363630742;0.363600045;0.363630623;0.363721669;0.363791794;0.363870353;0.363951713;0.364037246;0.364131421;0.364215881;0.364337832;0.364471853;0.364638388;0.364852816;0.365054995;0.36526686;0.36549145;0.365695417;0.365947604;0.366246581;0.366543204;0.366860092;0.36721015;0.367551744;0.367882133;0.368262649;0.368660569;0.3690916;0.369567394;0.370038241;0.370512158;0.371024221;0.371543765;0.37211132;0.372745991;0.373358756;0.373983979;0.374621928;0.375261635;0.375911713;0.3765724;0.377255321;0.3779594;0.378661603;0.379356116;0.380074739;0.380790889;0.381485611;0.382199526;0.382938415;0.383660465;0.384388745;0.385086864;0.385766327;0.386454284;0.387122273;0.387798756;0.388490856;0.389177322;0.38985914;0.390535235;0.391219109;0.391886681;0.392542005;0.393191189;0.393817484;0.394467831;0.395125717;0.395770639;0.39644891;0.397155106;0.397894412;0.398675591;0.399481386;0.400357574;0.401316494;0.402322054;0.403423637;0.4046067;0.405886769;0.407243758;0.408690691;0.410233885;0.411870241;0.413571179;0.41541779;0.417372078;0.419474959;0.421718806;0.424086452;0.426584929;0.429241896;0.432082474;0.434995353;0.438051164;0.441192329;0.444444388;0.447766483;0.451185971;0.454699248;0.458232701;0.461774439;0.465250134;0.468676388;0.472054332;0.475380868;0.478592217;0.481773257;0.484811157;0.487724572;0.490512043;0.493217081;0.495739192;0.498099208;0.500303149;0.502346992;0.50425607;0.505991697;0.507613301;0.509073555;0.510448456;0.511707485;0.512845397;0.5138551;0.514797568;0.51562196;0.516363978;0.517058313;0.51769352;0.51826942;0.518789768;0.519280076;0.519714177;0.520097852;0.520439863;0.52074337;0.521027923;0.521255612;0.521449864;0.521596253;0.521670341;0.521756828;0.521817565;0.521864474;0.521920145;0.521918237;0.521867633;0.521817446;0.521731615;0.521648586;0.521573782;0.521459758;0.521312594;0.521165073;0.520986974;0.52083081;0.52066958;0.520527303;0.520396292;0.520271838;0.520170629;0.520065844;0.519935071;0.519777238;0.519575059;0.519373715;0.519196332;0.518996418;0.51876241;0.51848495;0.518133581;0.517769635;0.517417729;0.517060578;0.516701937;0.516297221;0.515853167;0.515369177;0.514855802;0.514289677;0.513742447;0.51318413;0.512605011;0.512016296;0.511421084;0.510795891;0.510179281;0.509585083;0.508944988;0.508275509;0.507602513;0.50690794;0.506202459;0.505499721;0.504767895;0.503995121;0.503243744;0.502486169;0.501730025;0.500981629;0.500224829;0.499474049;0.49869144;0.497879177;0.49709031;0.496294498;0.495491147;0.494712949;0.493923396;0.493133783;0.49236238;0.49157539;0.490821421;0.490059704;0.48926127;0.488500834;0.487713099;0.486892432;0.486082852;0.485220522;0.484351456;0.483548611;0.482746422;0.48194325;0.48117739;0.480368376;0.479532838;0.478721589;0.47791943;0.477120161;0.476333678;0.475529492;0.474731028;0.473910719;0.473068058;0.472228914;0.471380264;0.470540106;0.469693482;0.468857408;0.468023449;0.467202991;0.466397464;0.46559146;0.464787543;0.463996977;0.463228941;0.462426186;0.461611927;0.460804939;0.459974289;0.459159255;0.458372682;0.457572013;0.456745088;0.455949605;0.455154747;0.454387963;0.453672409;0.45291841;0.452158034;0.451410562;0.450650156;0.44989565;0.449149013;0.448410988;0.44765839;0.446933776;0.446231127;0.445549399;0.444882989;0.44423756;0.443620116;0.443015158;0.442427397;0.441853672;0.441288203;0.440728605;0.440157533;0.439577103;0.438991278;0.438402861;0.437821418;0.437241614;0.436647534;0.436069548;0.435526192;0.434972525;0.434433997;0.433911502;0.433385998;0.432855964;0.432277262;0.431701839;0.431122065;0.430539101;0.430017143;0.429518789;0.429019004;0.428528428;0.428069055;0.427623153;0.427183747;0.426715672;0.426210761;0.425712407;0.425199747;0.42470628;0.424226284;0.423731446;0.423240364;0.422746181;0.422291964;0.421871513;0.421453834;0.421078295;0.420690417;0.420275182;0.419905305;0.419525325;0.419118494;0.418722987;0.418312848;0.417891651;0.417488098;0.417124599;0.41678068;0.416450083;0.416119516;0.415813178;0.415490985;0.415163785;0.414824575;0.414473474;0.414160609;0.413852036;0.413537651;0.413253665;0.412948579;0.412607491;0.412316471;0.412055045;0.411784947;0.411539376;0.411245227;0.410931021;0.410626233;0.410288036;0.409996599;0.409730464;0.409462959;0.409216046;0.408952624;0.408670247;0.408445865;0.408231556;0.408050627;0.407923549;0.407782257;0.407645255;0.407529175;0.407427907;0.407347053;0.40727064;0.407195687;0.407136858;0.407067776;0.406994641;0.40696311;0.406942338;0.406924307;0.406941295;0.406930894;0.406914234;0.406916857;0.406925619;0.406987578;0.407091498;0.407215387;0.407377362;0.407566488;0.407750845;0.407963753;0.408210695;0.408465683;0.408749431;0.409052849;0.409350961;0.409656703;0.409978837;0.410327375;0.410707951;0.411087275;0.411491215;0.411930174;0.412358314;0.412809849;0.413246095;0.413688898;0.414097607;0.41450575;0.414864272;0.41515851;0.415452629;0.415697426;0.415969163;0.416260123;0.416532457;0.416790336;0.417068273;0.417349935;0.417621374;0.417906255;0.418186039;0.418433398;0.418715209;0.419046372;0.419330627;0.41958943;0.419871658;0.420137733;0.420414627;0.420695543;0.421021342;0.421341509;0.4217197;0.422183156;0.422618836;0.42308265;0.423516929;0.423931092;0.424365371;0.424819887;0.425219655;0.425616086;0.425977886;0.426273525;0.426595688;0.426936716;0.427224755;0.427490562;0.42772907;0.427922696;0.428124934;0.428311676;0.428496718;0.42865923;0.42886889;0.429098129;0.429308444;0.429534465;0.429769248;0.429978162;0.430255413;0.430555195;0.430872351;0.4312464;0.431688547;0.432121754;0.432577759;0.433043212;0.433528215;0.433994204;0.43446362;0.434929878;0.435371995;0.435828596;0.436310142;0.43676886;0.437236756;0.437660187;0.43805933;0.438428193;0.438745886;0.439075083;0.439400852;0.439690381;0.439977795;0.440205634;0.440362692;0.440553069;0.440692335;0.440914631;0.441189528;0.441447943;0.441756755;0.442011386;0.442243665;0.442462653;0.442657351;0.442852914;0.443045169;0.44317472;0.443315506;0.443455428;0.443587691;0.443765074;0.4439466;0.444081575;0.444229305;0.444429994;0.444594651;0.444771916;0.444928676;0.445047349;0.445154816;0.445255637;0.445354819;0.445445091;0.445508003;0.445560783;0.468997449;0.469027907;0.46900323;0.469036311;0.468884021;0.468668163;0.468344301;0.467916399;0.467389822;0.466773331;0.46603483;0.465334326;0.464482397;0.46379146;0.463136733;0.462530255;0.46192795;0.461437017;0.461003393;0.460642844;0.460359305;0.460206628;0.460019231;0.459848642;0.459749162;0.459705651;0.459656268;0.459672809;0.459668368;0.459636629;0.459685534;0.45976609;0.459888935;0.460051119;0.460257888;0.460485548;0.460725039;0.461035341;0.461377174;0.461762905;0.462274343;0.462822556;0.463371366;0.463932842;0.464588434;0.465277106;0.466022789;0.466860235;0.467711866;0.468632966;0.46954298;0.470491827;0.471611083;0.472817838;0.474113584;0.475475758;0.476937294;0.478489786;0.480103284;0.481814921;0.48367399;0.485581666;0.487538993;0.489582181;0.491670847;0.49382472;0.496066719;0.498403877;0.500735044;0.503187776;0.505690336;0.508218884;0.510879815;0.513525784;0.516103983;0.518695652;0.521286726;0.523819268;0.526321828;0.528849125;0.531258762;0.533604681;0.535906136;0.538097084;0.540286958;0.542419016;0.544452846;0.546399474;0.548316419;0.55012989;0.551903546;0.55361712;0.555254042;0.556855261;0.558307409;0.559672415;0.560984313;0.562203705;0.563382089;0.564509153;0.565579772;0.566577375;0.567473769;0.568236768;0.568867862;0.569441378;0.569981039;0.570500851;0.571011424;0.571463585;0.571862161;0.572235703;0.572614968;0.572951138;0.573267817;0.573615253;0.573900223;0.574144661;0.574428022;0.574635863;0.574782073;0.574873984;0.574930727;0.574930966;0.574863553;0.574792564;0.574718893;0.574619472;0.574565828;0.574498475;0.574386299;0.57426852;0.574153244;0.573985457;0.57378161;0.573560894;0.573338032;0.573071063;0.572801948;0.572563469;0.572315395;0.572057784;0.571773708;0.571491897;0.571174026;0.570792794;0.570433676;0.570040643;0.569725573;0.569383085;0.56907922;0.568822265;0.568478227;0.568182826;0.567912579;0.567625701;0.567354262;0.567075849;0.566792309;0.566484034;0.566179633;0.565840185;0.565476477;0.565061331;0.564649701;0.564217031;0.563774168;0.563328326;0.562865913;0.562363982;0.561880231;0.561402857;0.560890079;0.560399652;0.559960485;0.559504151;0.559011877;0.558515966;0.557998061;0.557488799;0.556941152;0.556460977;0.55602324;0.555574894;0.55516541;0.55474031;0.554294705;0.553854406;0.553447068;0.553060114;0.552670062;0.55232507;0.551923394;0.551476836;0.551068604;0.550654292;0.550241649;0.549819708;0.549446344;0.549127281;0.548774183;0.548374236;0.547995806;0.547575355;0.547035635;0.546604216;0.546230793;0.545832574;0.54544276;0.545067668;0.544695735;0.544336498;0.543974161;0.543641686;0.543362319;0.543129563;0.542856932;0.542625666;0.54236722;0.542065442;0.54178524;0.54155004;0.541267872;0.540925443;0.540628254;0.540331006;0.540045619;0.539776087;0.539555013;0.539273441;0.538963914;0.538678765;0.538362026;0.538094223;0.537854791;0.53763026;0.537462533;0.537245214;0.537008464;0.536790192;0.53656882;0.536327124;0.536081851;0.535845339;0.535614967;0.535381556;0.535117745;0.534869432;0.534591854;0.534239113;0.533937573;0.533687353;0.533387959;0.53308028;0.532758057;0.532416582;0.532031655;0.531678021;0.531343639;0.53096509;0.530575812;0.530169427;0.529693961;0.529290557;0.52889818;0.528534293;0.528215349;0.527902782;0.527584434;0.527313173;0.527073085;0.526884854;0.526648283;0.526442826;0.526192188;0.525899947;0.525610447;0.525314748;0.525008321;0.524683774;0.524360001;0.524010301;0.523693562;0.523406506;0.523084641;0.522764981;0.522446334;0.522111237;0.521760523;0.521383166;0.520975828;0.520605206;0.52021426;0.519836664;0.519500315;0.51914686;0.518761098;0.518402517;0.518035412;0.517718494;0.517434835;0.517169654;0.51691246;0.516701519;0.516476691;0.51626116;0.516015232;0.51573956;0.515524507;0.51532644;0.515109062;0.514955401;0.514744997;0.514451861;0.514208972;0.513983905;0.513758779;0.513587236;0.513333559;0.513097167;0.512829483;0.512621999;0.512427092;0.512242675;0.512140989;0.51194036;0.511633992;0.511446595;0.511283696;0.511117518;0.511034429;0.510912955;0.510754466;0.510595262;0.510405838;0.510281622;0.510175288;0.510050654;0.509966135;0.509954512;0.509878755;0.509792089;0.509695292;0.509567618;0.50946486;0.509328306;0.50925678;0.509214997;0.509200215;0.509272575;0.509296477;0.509314895;0.509336352;0.509322941;0.509304106;0.509319901;0.509360909;0.509367943;0.509388149;0.509382665;0.509324431;0.509325683;0.509377897;0.509362459;0.509367883;0.509306252;0.509156704;0.509030104;0.50887537;0.508734703;0.508618832;0.508462548;0.508310556;0.508087814;0.50784719;0.507664144;0.507531166;0.507463455;0.507360816;0.507303357;0.507207692;0.507080317;0.506964803;0.506859839;0.506724536;0.506560862;0.50641644;0.506287217;0.506127596;0.505951583;0.505781949;0.505565405;0.505376339;0.505299687;0.505205154;0.505169809;0.505111635;0.505031884;0.504937351;0.504833281;0.504723012;0.504576743;0.504370391;0.504218638;0.504085779;0.503926933;0.503742635;0.503633499;0.503543317;0.503442407;0.503406942;0.503363132;0.503293037;0.503227115;0.503213763;0.503132761;0.503068566;0.503048182;0.503068209;0.503122926;0.503174543;0.503242731;0.503289461;0.503362298;0.503397048;0.503396273;0.503418863;0.503397286;0.503445446;0.503521144;0.503630519;0.503786445;0.503977776;0.504211068;0.504439116;0.504728436;0.504971921;0.505223393;0.505437016;0.505565107;0.505756259;0.505954444;0.506162226;0.506410956;0.50666368;0.50682199;0.506874084;0.507054806;0.507233739;0.5074507;0.507759213;0.508026838;0.508265078;0.508521199;0.508760393;0.50910455;0.5095312;0.509895265;0.510374665;0.510700345;0.510844827;0.511091173;0.511333585;0.511591792;0.511924922;0.512191355;0.512400925;0.512625515;0.512844145;0.513046682;0.513236046;0.513423383;0.513664603;0.513834655;0.514205337;0.514629304;0.514936209;0.515257537;0.515522778;0.515660107;0.515891552;0.516160309;0.516441107;0.516766012;0.51700449;0.517206728;0.517439604;0.517557979;0.517851949;0.518281281;0.518682301;0.519226313;0.519622862;0.519936562;0.520270407;0.520541787;0.520811081;0.52112323;0.521372557;0.52154386;0.521731257;0.521878481;0.522054613;0.522254407;0.522438943;0.522593081;0.522801518;0.523061156;0.523289382;0.523479462;0.523718238;0.523875535;0.523945391;0.524042487;0.524160624;0.524198949;0.524163723;0.524170101;0.524136484;0.52414012;0.524149537;0.524227381;0.524345458;0.524465501;0.524634719;0.524812579;0.525003135;0.525185168;0.525384545;0.525610328;0.525839388;0.526057065;0.526338756;0.526553333;0.526695192;0.52686429;0.526963472;0.527198732;0.527514935;0.527822614;0.528372526;0.528612316;0.528519988;0.528699815;0.528850973;0.529041529;0.529562533;0.529828548;0.52984935;0.529958963;0.5299986;0.530096412;0.530226588;0.530400753;0.53066349;0.530864775;0.530994534;0.531251252;0.531669199;0.531900406;0.532141566;0.532334864;0.532224894;0.532267034;0.53233397;0.532611072;0.532766283;0.532910705;0.533208191;0.533542693;0.533917487;0.534554839;0.534733534;0.534648418;0.534813941;0.534832835;0.534999967;0.535470188;0.535582662;0.535482585;0.535488844;0.535347223;0.535508037;0.535836637;0.53611517;0.536520839;0.536926806;0.537281632;0.537750781;0.538463056;0.538861513;0.539126217;0.539449692;0.539656103;0.53986001;0.540183604;0.540254116;0.540026307;0.540084541;0.540082395;0.540306926;0.540835142;0.54114747;0.541557848;0.541717827;0.541595519;0.54172641;0.54180032;0.542055786;0.542626202;0.542882323;0.543113828;0.543163896;0.542832077;0.542961538;0.543096721;0.54353416;0.544578135;0.54499197;0.545470297;0.545379758;0.544441998;0.544309139;0.543987513;0.544348598;0.545699954;0.546220779;0.546763062;0.547122717;0.546859682;0.547134817;0.547831297;0.547975957;0.54791522;0.548157156;0.548114598;0.548502028;0.549381554;0.55009079;0.550900161;0.551494181;0.552201629;0.552525699;0.552631974;0.552320957;0.551461995;0.55111295;0.550413489;0.550411165;0.551066577;0.55154717;0.552217245;0.552756965;0.553550363;0.553729951;0.553469539;0.55352962;0.553105295;0.553702772;0.555088699;0.556172073;0.557524562;0.557256103;0.556695461;0.556828022;0.556212783;0.556581557;0.557058096;0.556771696;0.556876183;0.55650121;0.556558192;0.557480752;0.557491064;0.557374358;0.557569981;0.556989074;0.556661904;0.556807458;0.557074368;0.55801338;0.558241248;0.557936311;0.558061838;0.557891607;0.557755649;0.558294773;0.558625996;0.558317482;0.558646798;0.559274137;0.559917629;0.560882866;0.561945319;0.563455403;0.564352214;0.565961003;0.565750122;0.563555717;0.562359869
0.569441736;0.580389202;0.590104759;0.593793809;0.595103323;0.597211123;0.604997754;0.618004024;0.58433789;0.565054774;0.571299255;0.562934995;0.560594261;0.567740023;0.579932749;0.581381917;0.579516172;0.579581022;0.582217515;0.573195815;0.569473445;0.573456883;0.577761412;0.572695017;0.571623802;0.576352537;0.572746933;0.571488559;0.570916295;0.569486499;0.572340012;0.573239267;0.573260963;0.575078845;0.573256731;0.572142303;0.571886599;0.569288969;0.570528865;0.572127879;0.571398258;0.569327593;0.571698189;0.57343024;0.569582283;0.567676246;0.567922652;0.569547474;0.570879221;0.567878425;0.566587329;0.568649173;0.568936646;0.568667352;0.569569945;0.571487963;0.568287969;0.567726254;0.569182396;0.568816543;0.568169355;0.568423867;0.568892539;0.56726867;0.565726161;0.565831482;0.567257762;0.565806925;0.565483093;0.56578362;0.565173686;0.565101266;0.565461516;0.565315545;0.563467443;0.563802898;0.563979268;0.562593281;0.561514676;0.562007904;0.562593043;0.561681867;0.561145842;0.561085999;0.560890913;0.559711635;0.559514225;0.559461951;0.559036076;0.558882535;0.558935642;0.558784723;0.558127642;0.557373226;0.557388186;0.557784259;0.557409465;0.556851625;0.556784868;0.556994855;0.55569905;0.555466175;0.555753529;0.555373311;0.554508626;0.553977549;0.553873897;0.553736031;0.553441465;0.553160667;0.552914917;0.552337527;0.551866055;0.551683426;0.551720738;0.551203966;0.550895512;0.550795078;0.550285339;0.550253093;0.550106525;0.54946512;0.548823357;0.548760235;0.548736453;0.548082232;0.548003197;0.547812939;0.547350824;0.547066748;0.546834111;0.546483159;0.546020925;0.545964003;0.545716465;0.545134187;0.544424474;0.544638574;0.544353843;0.543310285;0.542864442;0.542984247;0.542928278;0.542247832;0.541972637;0.541827738;0.541603506;0.541157842;0.540659785;0.540127695;0.539718091;0.539838314;0.539674282;0.539215326;0.538681209;0.538100004;0.537871301;0.537799418;0.537317276;0.537233829;0.537099063;0.536552906;0.535695612;0.535519242;0.535723507;0.535603046;0.535221696;0.534705102;0.534255147;0.534113169;0.533772469;0.53344661;0.533331215;0.533213139;0.532846212;0.532342672;0.531970739;0.531625271;0.5314641;0.531381488;0.530882776;0.530565023;0.530136228;0.529343665;0.528943002;0.528865397;0.528698325;0.527906179;0.527482986;0.527322352;0.527203083;0.527038813;0.526768267;0.526456892;0.526216984;0.52611798;0.525958955;0.525626004;0.525127947;0.52484113;0.52489835;0.525113046;0.524588943;0.524091065;0.523723781;0.523249149;0.522794008;0.522488713;0.522380412;0.522422135;0.521972418;0.52146244;0.521387041;0.520943284;0.520597696;0.520440221;0.520196378;0.519991517;0.519687533;0.51918906;0.518556058;0.518184662;0.517953813;0.517539322;0.517029703;0.516820431;0.516877532;0.51657337;0.516310632;0.516162634;0.51610744;0.516122758;0.516026258;0.51578021;0.515461981;0.515129685;0.514688075;0.51415658;0.513820827;0.513541758;0.513358176;0.513278365;0.512809813;0.512474477;0.512303054;0.511746824;0.511651397;0.511578023;0.511117041;0.510810435;0.510592461;0.510393262;0.510133207;0.509753466;0.509330571;0.508969009;0.508794844;0.508603871;0.508306921;0.50788945;0.507464588;0.507072866;0.506751835;0.50651294;0.505830228;0.505327702;0.505352139;0.504960299;0.50458622;0.504185081;0.503581345;0.503319919;0.503128529;0.502767444;0.502152622;0.501773;0.501513183;0.501169503;0.500970304;0.50049454;0.499922216;0.499832809;0.49952504;0.499117643;0.498736829;0.498218745;0.497826397;0.497516066;0.497165501;0.496986449;0.496731579;0.496337414;0.495979309;0.495474279;0.49519667;0.495256662;0.494541466;0.494065851;0.493875057;0.493470848;0.49301222;0.492726624;0.492614448;0.492297977;0.491860718;0.491409808;0.491023242;0.490552038;0.490139097;0.489956468;0.490121633;0.489713728;0.48900789;0.488420486;0.488207221;0.487903118;0.487455666;0.486980438;0.486442685;0.486120611;0.486054629;0.485990286;0.485592693;0.485025197;0.484527737;0.484137356;0.483821273;0.483449876;0.482906073;0.482674807;0.482495606;0.482201338;0.481903076;0.481497407;0.481049716;0.480648935;0.480249882;0.480082899;0.47990799;0.479213595;0.478817165;0.478441775;0.477951258;0.477845699;0.477491677;0.476976544;0.476623535;0.476567805;0.476280004;0.475704432;0.475251287;0.474769711;0.474375904;0.474092185;0.473585784;0.473261535;0.473044991;0.472695559;0.472298473;0.471905708;0.47155866;0.471276492;0.47073704;0.470281035;0.470124364;0.469761699;0.469248444;0.468661726;0.468123466;0.467864811;0.467650652;0.467305571;0.466789782;0.466452152;0.466083288;0.465534627;0.465288788;0.464908481;0.464377642;0.463911891;0.463577449;0.4632788;0.462897718;0.462318599;0.462057382;0.461963177;0.461699873;0.460852176;0.460544646;0.460445702;0.459591001;0.459037781;0.458684444;0.458384633;0.458098918;0.457715422;0.457189918;0.456584454;0.45621255;0.455817163;0.455371916;0.454980135;0.454696983;0.454338342;0.453865349;0.453443557;0.452968359;0.452391744;0.45180577;0.451684445;0.451442093;0.450928986;0.450272739;0.449836463;0.449371785;0.448925734;0.448888898;0.448474705;0.447983384;0.447650135;0.446967125;0.446315557;0.445851833;0.445554614;0.444960028;0.444558561;0.444393605;0.444067419;0.443599045;0.443005711;0.442425758;0.442241162;0.441608697;0.440906733;0.440660596;0.440253675;0.440018356;0.439810723;0.439205796;0.438370317;0.437956214;0.437973768;0.437500715;0.436915278;0.436559379;0.436477244;0.435875654;0.435225517;0.434702963;0.434317887;0.433947921;0.433561027;0.433161706;0.432773203;0.432214946;0.431877196;0.431765169;0.43100366;0.430263191;0.429865271;0.429821521;0.429508597;0.428938568;0.428288221;0.427799761;0.427424192;0.427040696;0.426566988;0.425985157;0.425395221;0.425090313;0.425047785;0.424553007;0.424039513;0.423641682;0.423295587;0.42252335;0.422041863;0.421826899;0.421432495;0.420873135;0.420442522;0.420089871;0.419418842;0.418978006;0.41873309;0.418502718;0.418052733;0.417434156;0.416994393;0.41689983;0.416437596;0.415951818;0.415582299;0.415300071;0.414766401;0.414231479;0.413815022;0.413502485;0.413509935;0.413292557;0.412535608;0.411420047;0.410928845;0.410937041;0.41093576;0.410202742;0.409672678;0.409327269;0.408881396;0.408375323;0.407994479;0.407597065;0.406954646;0.406512827;0.406195223;0.405916095;0.405608594;0.40514335;0.404497951;0.403900683;0.403833598;0.40324381;0.40264228;0.402415752;0.40199998;0.401383996;0.400907159;0.400757313;0.400296479;0.39966929;0.399198174;0.399058878;0.398380786;0.397907048;0.397685021;0.397302479;0.396747619;0.39629069;0.396048278;0.395927936;0.395612061;0.395069033;0.39439413;0.393781245;0.393375158;0.393184602;0.393047452;0.392596245;0.392186075;0.391872227;0.391603023;0.391274065;0.390839845;0.390348256;0.38984853;0.389267445;0.388704836;0.388346732;0.388259798;0.387944698;0.387542248;0.387065232;0.386455268;0.385639548;0.385137558;0.384885192;0.384471267;0.384233296;0.383725971;0.383021861;0.382613868;0.382277399;0.382038772;0.381817877;0.381443471;0.381139338;0.380664766;0.379992217;0.379418373;0.379135102;0.378913552;0.378625363;0.378387034;0.377997816;0.377441347;0.376835018;0.37641409;0.376011431;0.37549305;0.374943912;0.37478587;0.374514788;0.374141425;0.373804986;0.37362501;0.37349984;0.373257905;0.37281397;0.37228173;0.372284621;0.372208774;0.371579885;0.370987773;0.370808363;0.370763272;0.370583773;0.370518833;0.370324314;0.369957983;0.369455993;0.368868023;0.368571699;0.368490845;0.368409932;0.368165135;0.367627382;0.367181033;0.367005587;0.366527289;0.366090089;0.365962952;0.366015315;0.365414172;0.364622414;0.363792747;0.362986714;0.362231582;0.362039834;0.361871868;0.361363381;0.360892296;0.360383093;0.36000663;0.359685719;0.358986229;0.358804852;0.358652323;0.358320743;0.358219475;0.357226759;0.356283635;0.355816245;0.355323881;0.355013967;0.354553103;0.353963196;0.35358426;0.353155166;0.35232684;0.351506144;0.369269669;0.368966043;0.368684977;0.368416965;0.368098825;0.36771968;0.367440671;0.367211998;0.366907835;0.366645873;0.366315782;0.36585018;0.365496784;0.365181506;0.364872754;0.364631236;0.364342988;0.364070594;0.363729894;0.363317609;0.363004178;0.362709194;0.36245051;0.362140507;0.361838847;0.361559272;0.361265033;0.360965759;0.360699892;0.3604258;0.360115379;0.359809458;0.359543592;0.359286547;0.358991563;0.358716607;0.358420551;0.358110785;0.357826918;0.357534021;0.357237965;0.356990069;0.35670197;0.356337726;0.356059283;0.35582903;0.355566382;0.355342627;0.355113596;0.354787678;0.354477346;0.354181677;0.353889883;0.35363093;0.353425264;0.353189677;0.352948487;0.352719098;0.352523983;0.352270126;0.351976663;0.351717889;0.351440758;0.351185501;0.350951672;0.350724638;0.35049504;0.35022077;0.350016862;0.349817276;0.349598259;0.349419534;0.349186569;0.348854184;0.348616153;0.348411441;0.348199159;0.347989023;0.34782654;0.347604662;0.34736672;0.347125322;0.34687534;0.346670985;0.346471339;0.346270621;0.346078515;0.345911503;0.345755607;0.345571578;0.345386297;0.345255673;0.345066011;0.344845027;0.344666094;0.344495893;0.344320089;0.344150901;0.344031036;0.343893141;0.343721002;0.343608826;0.343479276;0.343286693;0.34312284;0.342972815;0.342821896;0.342642933;0.342489123;0.342337966;0.342154056;0.341967702;0.341761798;0.341546685;0.341352165;0.341156781;0.341023892;0.340942651;0.340797901;0.340631455;0.34050855;0.340365261;0.340245605;0.34014824;0.340111226;0.34002474;0.339963973;0.339960665;0.339946955;0.339958668;0.339978069;0.340021819;0.340099752;0.340175241;0.340283275;0.340394408;0.340491414;0.340638965;0.340832859;0.341028333;0.341261297;0.341488957;0.34172383;0.341955334;0.342200607;0.342427313;0.342645347;0.342864394;0.343079954;0.343279481;0.343458414;0.343606055;0.343702227;0.343777955;0.343842804;0.343893677;0.343918175;0.343933493;0.343903452;0.343817174;0.343745291;0.343654543;0.343567789;0.343467802;0.34335804;0.343250573;0.34315142;0.343062788;0.34297666;0.342862695;0.34274298;0.342631668;0.342527211;0.34240827;0.342281699;0.342158526;0.342025429;0.341892123;0.341759562;0.34163937;0.34150964;0.341414034;0.341310829;0.341171354;0.341029435;0.340860903;0.340718448;0.340625614;0.340509474;0.340415478;0.340288937;0.340128213;0.339997381;0.339894056;0.339739859;0.339564413;0.339395642;0.339178622;0.339002967;0.338846117;0.338729441;0.338594526;0.338409901;0.338253975;0.338093966;0.337924421;0.337795168;0.337620169;0.33740744;0.33722809;0.337060422;0.336858779;0.33666724;0.336451918;0.336180061;0.33594659;0.335730374;0.335502923;0.335282236;0.335060418;0.334843367;0.334610462;0.33436054;0.334099263;0.333847106;0.333576798;0.333322644;0.333077759;0.332844526;0.332606643;0.332389414;0.332206428;0.332001001;0.331788599;0.331585139;0.331391603;0.33118251;0.330956995;0.33075434;0.330548376;0.33035022;0.330168158;0.330001473;0.32982108;0.329648584;0.329484016;0.329331487;0.329175174;0.329011232;0.328877926;0.32877022;0.328641027;0.328525841;0.328396142;0.32823348;0.328101128;0.327982396;0.327868193;0.327779621;0.32766825;0.32755056;0.327430516;0.32729274;0.327162772;0.327031612;0.326904982;0.326771349;0.326623648;0.32650575;0.32639122;0.326296628;0.326230943;0.326155633;0.326079011;0.326020539;0.32597056;0.32592842;0.325908422;0.325879276;0.325868577;0.325826198;0.325762898;0.325703353;0.325594276;0.325535327;0.325509012;0.325491905;0.32547307;0.325485706;0.32546556;0.325405568;0.325413048;0.325445086;0.32547617;0.325550348;0.325597137;0.325619578;0.325665832;0.3257173;0.325782537;0.325853795;0.325941026;0.326053709;0.326157987;0.326268226;0.326384008;0.326492399;0.326613069;0.326751798;0.326879472;0.327028483;0.327185929;0.3273561;0.327540696;0.327729374;0.327918023;0.328136325;0.328368843;0.328615844;0.328895718;0.32916227;0.329417408;0.329705864;0.330014586;0.330319941;0.330641806;0.330971122;0.331294894;0.331633359;0.332006603;0.33235833;0.332686543;0.333043516;0.333406359;0.333778054;0.334175169;0.33457002;0.334956527;0.335331112;0.335719466;0.336119801;0.336502284;0.336881697;0.337262213;0.337640822;0.338001013;0.338353187;0.33871004;0.339048803;0.339400619;0.339772195;0.340126455;0.340489179;0.340819776;0.34111464;0.34143123;0.341732979;0.342034817;0.342383355;0.34275499;0.343145609;0.343550384;0.343964815;0.344419062;0.344925195;0.345460236;0.346063614;0.346717298;0.347430587;0.348200291;0.349012375;0.349868327;0.350798607;0.351779342;0.352832198;0.353953093;0.355153978;0.356426418;0.357771307;0.359179616;0.360696316;0.362313539;0.363985747;0.365743577;0.367579222;0.369498581;0.371453524;0.373490006;0.375593156;0.377705872;0.37984857;0.381976962;0.384104311;0.38622126;0.388337463;0.390389681;0.392446607;0.394420296;0.396341115;0.398178309;0.399964362;0.401655316;0.403263718;0.404764771;0.406179428;0.407510847;0.408730984;0.409882307;0.410957307;0.411950707;0.412837267;0.413676292;0.414456517;0.415167511;0.415800601;0.416391492;0.416935533;0.4173989;0.41786173;0.418299496;0.418669164;0.419018924;0.419339985;0.419606537;0.419852585;0.420069546;0.420220375;0.420349658;0.420460373;0.420534849;0.420606494;0.420662016;0.420705497;0.420738578;0.420756191;0.420758218;0.420754075;0.42073226;0.420704722;0.420681506;0.420630306;0.420560956;0.420484483;0.420372486;0.420279354;0.420198411;0.420097321;0.419992656;0.419887751;0.419773787;0.419647068;0.419537693;0.419422418;0.419272363;0.41912657;0.418977797;0.41880697;0.418646276;0.418473512;0.41824466;0.418000758;0.417756736;0.417484075;0.417216212;0.416953146;0.416652501;0.416308135;0.415941924;0.415536195;0.415136844;0.414712608;0.414299071;0.413889408;0.413465232;0.413038343;0.412589461;0.41212514;0.411656588;0.411168307;0.41068238;0.410198033;0.4097009;0.409199893;0.408685654;0.408150345;0.407627165;0.407100558;0.406569511;0.40603888;0.405509055;0.404979974;0.404440314;0.403890342;0.403358251;0.402823299;0.402294278;0.401787519;0.401256889;0.400729358;0.400194615;0.399639815;0.399104655;0.398558766;0.397996396;0.397437871;0.396861583;0.396281838;0.395702809;0.395111829;0.394540429;0.393979698;0.393403381;0.392848253;0.392300218;0.391744137;0.391207904;0.390654415;0.390092671;0.38954711;0.388999015;0.388452023;0.387920797;0.387375653;0.386821836;0.38626799;0.385709137;0.385161102;0.384618908;0.384060591;0.383492202;0.38294819;0.382398248;0.381867588;0.381370157;0.380858719;0.380337983;0.379827678;0.37932533;0.378827274;0.378344089;0.377844006;0.377332985;0.376835912;0.376333714;0.375843108;0.375368088;0.374891698;0.374412268;0.373935461;0.373464763;0.373000354;0.37254855;0.372088075;0.371619761;0.371161431;0.370694637;0.370242625;0.369797796;0.369378448;0.368980408;0.368580401;0.368207276;0.367836148;0.367457986;0.367098778;0.366754472;0.366437078;0.366120547;0.365772784;0.365428329;0.36505574;0.364671767;0.364315122;0.363909483;0.363513768;0.363160968;0.362803549;0.362491786;0.362183869;0.361870229;0.361553401;0.361185133;0.36082986;0.360471189;0.360083848;0.359722495;0.35938406;0.359046876;0.358716577;0.358400881;0.358090311;0.357790858;0.357475609;0.35714522;0.35681507;0.356463283;0.356123418;0.355811;0.355511189;0.355224252;0.354927927;0.354623348;0.354342639;0.35407722;0.35382241;0.353590161;0.35334754;0.353115946;0.352885962;0.352625042;0.352380633;0.352125764;0.351853967;0.351612568;0.351390213;0.351154745;0.350924015;0.350710243;0.350509286;0.350297362;0.350107163;0.349877834;0.349619716;0.34938547;0.349139184;0.348910034;0.348692536;0.348485649;0.348283827;0.348091543;0.347918659;0.347742647;0.34757635;0.347383469;0.347192794;0.346979052;0.346728891;0.346508533;0.34627834;0.346090376;0.345930606;0.345766962;0.345621079;0.345485657;0.345353752;0.345226288;0.345122665;0.34500879;0.344875306;0.344784707;0.34471339;0.344662219;0.344628751;0.344578117;0.344515443;0.344434679;0.344372332;0.344351649;0.344330043;0.344290406;0.344251782;0.344201177;0.34414348;0.344113827;0.344108641;0.344110101;0.344147503;0.344224751;0.344309866;0.344417721;0.344507456;0.34458968;0.344709247;0.344827145;0.344959557;0.345114976;0.345265448;0.34539929;0.345569372;0.345765054;0.345946074;0.346232146;0.346485943;0.346747518;0.347014546;0.347267687;0.347517937;0.347797573;0.348042995;0.348261982;0.348472655;0.348662674;0.348843455;0.34901756;0.349172831;0.349294454;0.349436581;0.349560201;0.349712759;0.349887758;0.350074917;0.350306898;0.350494444;0.350667953;0.350844145;0.350989312;0.351150066;0.351326853;0.35150063;0.351662576;0.351843089;0.352030367;0.352235138;0.352448404;0.352683783;0.352938265;0.353210717;0.353521436;0.353805274;0.354107201;0.35437122;0.354607821;0.354836285;0.355047852;0.355246514;0.355432719;0.355601698;0.355760932;0.355886757;0.355977178;0.356081992;0.356167436;0.356257498;0.356366247;0.356434971;0.35647133;0.356527716;0.356571048;0.356632054;0.356706828;0.356780738;0.356846422;0.356965423;0.357085824;0.357217938;0.357399881;0.357570469;0.357787371;0.358071059;0.358342856;0.358666629;0.358943075;0.359196514;0.359434038;0.359618276;0.359836519;0.360060811;0.360286206;0.3605344;0.360767961;0.361014813;0.361214429;0.361394912;0.361550897;0.361655116;0.361762851;0.361872494;0.361948669;0.361981541;0.362044483;0.362089008;0.362164468;0.362258077;0.362383455;0.362537444;0.362682581;0.362868249;0.362998843;0.363111079;0.363191873;0.363240719;0.363282681;0.363295883;0.363293499;0.363310039;0.363318592;0.363350004;0.363403708;0.363444149;0.363493443;0.363550693;0.363638073;0.363695592;0.363750577;0.363784909;0.363762766;0.363788098;0.363847077;0.363871783;0.363913417;0.384932548;0.384966195;0.384921849;0.38493377;0.384743929;0.384475678;0.384100497;0.383568317;0.383004189;0.382377267;0.381655246;0.380963057;0.380203635;0.37948063;0.378686458;0.378036261;0.377412409;0.376857996;0.376386404;0.375988364;0.375627697;0.375297099;0.375028968;0.374854684;0.374665737;0.374519825;0.37436533;0.374222875;0.374077469;0.373943299;0.373871744;0.373834252;0.373859167;0.373868585;0.373884887;0.373937726;0.374005497;0.374101669;0.374222636;0.374373585;0.3745915;0.374831647;0.375114381;0.375508606;0.375837713;0.376118451;0.376471281;0.37684527;0.377223909;0.377654314;0.378149986;0.378663987;0.379234672;0.379887581;0.380635053;0.381398678;0.382199585;0.383081347;0.384024829;0.384995311;0.386052549;0.387169302;0.388323516;0.389562786;0.390847027;0.392194211;0.393617749;0.395113617;0.396629751;0.398248196;0.399937898;0.401661217;0.403517038;0.405419648;0.407355934;0.409330368;0.411345065;0.413353503;0.415393054;0.417463183;0.419530749;0.421584845;0.423616976;0.425603211;0.427521974;0.429453284;0.431323528;0.433157027;0.434950173;0.436748207;0.438466132;0.440098286;0.441706717;0.443269283;0.444730431;0.446178555;0.447573096;0.448855579;0.450078249;0.451242477;0.452302426;0.453277469;0.454158872;0.454906344;0.455576926;0.456214368;0.456815779;0.457369596;0.457864195;0.458328754;0.458753049;0.45910871;0.45944649;0.459801584;0.460086972;0.460379571;0.460650325;0.46087274;0.461105853;0.461298287;0.461468667;0.461623907;0.461740345;0.461829126;0.461882681;0.461876899;0.461865306;0.461890697;0.461874187;0.461823732;0.46177125;0.461664975;0.461472601;0.461293757;0.461107582;0.460901409;0.460642189;0.460386485;0.460132778;0.459847987;0.459581077;0.459340096;0.459059834;0.458756;0.458457768;0.458132774;0.457817972;0.457513213;0.457207292;0.456884831;0.456597775;0.456293494;0.455995649;0.455688536;0.455357611;0.455056399;0.45478338;0.45447877;0.454197437;0.453875035;0.453537583;0.453141272;0.452729791;0.452304065;0.451854974;0.451375216;0.450895518;0.45039925;0.449887246;0.449334234;0.448811978;0.448285878;0.447776616;0.447268963;0.446794569;0.446321547;0.445873559;0.445423007;0.444999218;0.444550782;0.44408679;0.443634838;0.443142623;0.442732543;0.442385972;0.442020923;0.44170025;0.441382319;0.441029221;0.440625399;0.440268815;0.439930439;0.439581573;0.439254254;0.438906491;0.438550919;0.438174069;0.437771201;0.4373779;0.436974436;0.436571985;0.436159581;0.435757667;0.435338229;0.43487227;0.434468448;0.434083641;0.433709294;0.433361262;0.433026165;0.432718873;0.432397157;0.432073683;0.431767702;0.431481987;0.431198746;0.43092075;0.43069151;0.43041116;0.430073828;0.429793745;0.429554701;0.429269224;0.428980798;0.428697705;0.428349853;0.428057849;0.427795649;0.427598;0.42733559;0.427073568;0.4268049;0.426484317;0.426221788;0.42599526;0.425760686;0.425551742;0.425328463;0.425095856;0.42487064;0.424646914;0.424423486;0.424197316;0.423972905;0.423749328;0.423528373;0.423295617;0.423062235;0.422823608;0.422564238;0.422321141;0.42209357;0.42185232;0.42162168;0.421369523;0.421104074;0.420808852;0.420555532;0.42032057;0.420048028;0.419809818;0.419495702;0.419075608;0.418742746;0.41842711;0.418099254;0.41779393;0.417496622;0.417158991;0.416867584;0.416606367;0.416418105;0.416139454;0.415850252;0.415555209;0.415178865;0.414902478;0.414692074;0.414446712;0.414217412;0.41400069;0.413775563;0.413559705;0.413382858;0.413186282;0.412990808;0.41278249;0.412524968;0.412250251;0.411943853;0.411548257;0.411239475;0.410948932;0.410664409;0.410423905;0.410161853;0.409883648;0.409623802;0.409353614;0.409116715;0.408915102;0.408695012;0.408515155;0.408390641;0.408205271;0.408021063;0.407814622;0.407561541;0.407334805;0.407104343;0.406890273;0.406674325;0.406482607;0.406322658;0.406150639;0.405992717;0.405825496;0.405655861;0.405464619;0.405304432;0.405150086;0.405012488;0.404900849;0.404771835;0.404648304;0.404516876;0.404379725;0.404244691;0.404107809;0.403968006;0.4037956;0.403675705;0.403582454;0.403493792;0.403419882;0.403395146;0.403390527;0.403348804;0.403275609;0.403197438;0.403104246;0.402934015;0.402844965;0.4028247;0.402743012;0.402624518;0.402563691;0.402520508;0.402448773;0.402401686;0.402359575;0.40228042;0.402214736;0.402217329;0.40219301;0.402203083;0.402229726;0.402246445;0.402302682;0.402308494;0.402303308;0.402248561;0.402148515;0.402045518;0.401882142;0.401762813;0.401661158;0.401559263;0.40149501;0.401377708;0.401226342;0.401084006;0.400917143;0.400732487;0.400598556;0.400462985;0.400376558;0.400332898;0.400275379;0.400264591;0.400208682;0.400106549;0.40005976;0.400058538;0.3999843;0.399896115;0.399815798;0.399674237;0.399568796;0.399526209;0.399443179;0.39932844;0.399219394;0.39912349;0.398991048;0.398862869;0.39868784;0.398603082;0.398567945;0.398465723;0.398409486;0.398301601;0.398100883;0.397952884;0.397826165;0.397695214;0.397531927;0.397426963;0.397379398;0.397300273;0.397245735;0.397177756;0.397067845;0.39699176;0.396957994;0.396878481;0.396808803;0.396798462;0.396760643;0.39675501;0.396747679;0.396757931;0.396749556;0.396735311;0.396737427;0.396740228;0.396749943;0.396783859;0.396789759;0.396759689;0.396779984;0.396795452;0.396862209;0.396992534;0.397099793;0.397197872;0.397348464;0.397543222;0.397725374;0.397984624;0.398164719;0.398252398;0.39837575;0.398542047;0.398751765;0.398943096;0.39920339;0.39940092;0.399517119;0.399734914;0.399999946;0.400254726;0.400542587;0.40082413;0.401100367;0.401402175;0.401751935;0.402049154;0.402358681;0.40260303;0.402763635;0.402973294;0.403189242;0.403370112;0.403531075;0.40372327;0.403870463;0.404062271;0.404338211;0.404574871;0.404777378;0.405046344;0.405232936;0.405409098;0.405644983;0.405880272;0.406155437;0.406518638;0.406799495;0.40707612;0.407287806;0.40742445;0.407628626;0.407814324;0.408014119;0.408270627;0.408488989;0.408643872;0.408879519;0.409157008;0.409425199;0.409743667;0.410026163;0.410335034;0.41056186;0.410698563;0.410894126;0.411085516;0.411238968;0.411400408;0.411568284;0.41167143;0.411807001;0.411985576;0.412167549;0.412339568;0.41253981;0.412802726;0.413044006;0.413283855;0.413355052;0.413414776;0.413359135;0.413396031;0.413434476;0.413438082;0.413431019;0.413467437;0.413493782;0.413512111;0.413599879;0.413608134;0.413468927;0.413534641;0.413673669;0.413843185;0.414157033;0.414393187;0.41464594;0.414841086;0.415035397;0.415156245;0.415088326;0.415244758;0.415484518;0.4157134;0.416122139;0.416406214;0.416584879;0.416803032;0.41706413;0.417240888;0.417319626;0.417474002;0.417601138;0.417760104;0.417983294;0.418214381;0.41852352;0.418705761;0.418815613;0.418962985;0.419076771;0.419119298;0.419157505;0.419187784;0.419056624;0.419023782;0.419038802;0.419125676;0.419317693;0.419480503;0.41978088;0.419953048;0.420029551;0.420027733;0.420155525;0.420253724;0.420418411;0.42068696;0.420950115;0.421230584;0.421444684;0.421750635;0.42182976;0.421679348;0.421746731;0.421833247;0.421861857;0.421938807;0.422027469;0.421988457;0.422139585;0.422414392;0.422804952;0.423441648;0.423676521;0.423859209;0.424009085;0.423790663;0.423895746;0.42428714;0.424447507;0.424462199;0.424678206;0.424913973;0.42523393;0.425750852;0.426155329;0.426678032;0.426804185;0.426663518;0.426674336;0.426315129;0.426479697;0.427101582;0.427438468;0.427956074;0.428164244;0.428040415;0.428162009;0.428229809;0.428374767;0.428752065;0.428885192;0.428848892;0.428963542;0.429074436;0.429126561;0.429217756;0.429324001;0.429255694;0.429480016;0.430049896;0.43023479;0.430219442;0.430575043;0.43099761;0.431278348;0.431908488;0.4320862;0.431570202;0.431796968;0.432252556;0.432870388;0.434193313;0.434544086;0.434564918;0.43444562;0.433511019;0.433493614;0.433871984;0.434108943;0.434646606;0.43497473;0.435270399;0.435326397;0.435157806;0.435369492;0.435471445;0.435836136;0.436822116;0.437094986;0.436901808;0.437182277;0.437454283;0.437695324;0.438366741;0.438238442;0.437574983;0.437469989;0.436506152;0.436575621;0.436969131;0.437290817;0.438494027;0.439500004;0.439936996;0.440604925;0.441170573;0.441094041;0.441685081;0.442269474;0.442021847;0.44146812;0.440439075;0.439544171;0.439716935;0.440795511;0.441479176;0.442017436;0.442421436;0.442834079;0.443126231;0.443493545;0.443130642;0.441853493;0.441456586;0.44089967;0.44058004;0.440782428;0.441367298;0.44226867;0.442979306;0.444424212;0.44530645;0.445878536;0.445914328;0.445094734;0.445235819
0.997585118;0.978621483;0.942829549;0.991543055;1.005431533;0.992982686;0.978034198;0.983492196;1.016304851;1.023998618;0.995576322;0.973265171;0.969649374;0.970154703;0.964779198;0.961230993;0.965247631;0.960076153;0.937231004;0.938078642;0.940094829;0.936724484;0.934006989;0.950475097;0.955600739;0.942938447;0.940974116;0.941553354;0.945774674;0.952100217;0.948182225;0.948876977;0.948917747;0.939437032;0.934080958;0.933987379;0.936835706;0.938361168;0.941325545;0.940214157;0.935262561;0.937816322;0.94798398;0.952926397;0.943604887;0.939294577;0.940219164;0.942475617;0.940749884;0.940346837;0.938437402;0.935165346;0.93521452;0.932558537;0.930602252;0.931859195;0.930288911;0.93333143;0.937041998;0.934552968;0.935307562;0.936220288;0.936253071;0.937131941;0.93535614;0.933811247;0.93433404;0.934253454;0.93313539;0.930543244;0.927163064;0.927955091;0.930228233;0.931007326;0.928139746;0.928682148;0.928919554;0.926890612;0.92680794;0.926543713;0.927152038;0.92935735;0.928746402;0.92826736;0.928104579;0.92661792;0.927332222;0.927752137;0.926696479;0.926512599;0.926012099;0.925739586;0.926090598;0.924963772;0.924354017;0.924883842;0.925974369;0.925949693;0.925583541;0.925266027;0.923988581;0.924643457;0.925974429;0.925830007;0.923831284;0.922522545;0.922298312;0.922009468;0.922995031;0.924004734;0.923929274;0.922408283;0.921865523;0.922158122;0.922374606;0.922533035;0.922593474;0.922471642;0.92207998;0.921825171;0.921789706;0.921785355;0.921143234;0.920697153;0.920144081;0.919170678;0.919821918;0.919956625;0.919208884;0.919140816;0.918728888;0.918403447;0.918489754;0.91841501;0.918075085;0.917461038;0.91676724;0.917109549;0.916522443;0.915013492;0.915178895;0.915096402;0.914666355;0.914194643;0.913918972;0.913377345;0.912483931;0.911500633;0.911405802;0.912077427;0.912808239;0.912220776;0.911766171;0.911357343;0.910631597;0.909882128;0.90968591;0.909672439;0.908892572;0.908668578;0.908537686;0.908112228;0.907670796;0.9074049;0.907347679;0.907350361;0.906731188;0.906425118;0.906255841;0.904955387;0.904611588;0.904987574;0.905332088;0.904883385;0.90427357;0.903585434;0.902719319;0.902296841;0.902206063;0.902224481;0.902102172;0.901751757;0.900784254;0.899299681;0.899322629;0.899848938;0.899904132;0.898774028;0.898011684;0.897411942;0.896841705;0.896939874;0.896706939;0.896420121;0.896608531;0.896458268;0.896108091;0.895587564;0.894767404;0.894328058;0.894342184;0.894479632;0.893629968;0.893458605;0.893597841;0.892768681;0.892184377;0.891839087;0.891621768;0.891488075;0.89110291;0.890986502;0.891557336;0.891601026;0.891776085;0.892035365;0.891689658;0.8913064;0.890741825;0.889980137;0.889551282;0.889775038;0.890209258;0.89014703;0.889915586;0.889670312;0.889132321;0.88747704;0.886040807;0.885223746;0.884987235;0.884853959;0.884901881;0.885063589;0.885130107;0.88453567;0.883814335;0.883437574;0.883463562;0.883551955;0.88368243;0.883884311;0.883763015;0.883535624;0.883214116;0.882558763;0.882177174;0.881830633;0.881259263;0.880714893;0.880357563;0.880091965;0.879688978;0.879278302;0.878808618;0.878333271;0.878121674;0.877825916;0.87737453;0.87680912;0.876205802;0.875694096;0.875242233;0.874664903;0.873859525;0.873319507;0.873229086;0.872706771;0.872057319;0.871369421;0.870678723;0.870249271;0.869963825;0.869591296;0.868793547;0.868338585;0.868052781;0.86761421;0.867279947;0.866697669;0.866091013;0.86603564;0.86549139;0.864930093;0.864650249;0.864034176;0.86356318;0.863102257;0.862423956;0.862240195;0.861811697;0.861138344;0.861129403;0.860611975;0.860161304;0.860193372;0.859335899;0.858644664;0.858328044;0.858054698;0.857508183;0.856917322;0.85645926;0.856118321;0.855566084;0.854876101;0.854240119;0.853686273;0.8533324;0.853199005;0.853178859;0.852603078;0.851871312;0.85131526;0.850643575;0.85007906;0.849659681;0.849283636;0.848488986;0.847935617;0.847757161;0.847396731;0.846797109;0.846152306;0.845613301;0.8449049;0.844665587;0.844485939;0.843550444;0.843167543;0.842878282;0.842347383;0.841735959;0.8410303;0.840415776;0.839993715;0.839303672;0.838948607;0.838748574;0.837994337;0.83739537;0.83685714;0.836324632;0.836106479;0.835377932;0.83455497;0.834267199;0.833821416;0.833220422;0.83262378;0.832265079;0.831499934;0.830684423;0.830130517;0.829592645;0.828948379;0.828179657;0.827369392;0.826779008;0.826249659;0.825750649;0.825407207;0.824529886;0.823645592;0.823221385;0.822868586;0.822235584;0.821353197;0.820500433;0.820056498;0.819699645;0.819115102;0.818098009;0.817673266;0.817172468;0.816042364;0.815333545;0.814744592;0.814244509;0.813856065;0.81291765;0.812195897;0.811822832;0.81093204;0.810431361;0.810217023;0.80985862;0.808672488;0.807832062;0.807291925;0.806382418;0.805402994;0.80456233;0.803877234;0.803135455;0.80260694;0.801934958;0.800922692;0.800334394;0.799741566;0.799011111;0.798213601;0.797604859;0.797131658;0.796607912;0.795738101;0.794816554;0.793873787;0.793023646;0.79286164;0.792300999;0.791348398;0.790556848;0.79020077;0.789482713;0.788480937;0.788256288;0.787433982;0.786682367;0.786444128;0.785589993;0.784708083;0.784030676;0.783538818;0.782589495;0.781847894;0.781456888;0.781010628;0.780272245;0.779284656;0.778330266;0.778068364;0.777202904;0.77617836;0.775696158;0.775011778;0.774626195;0.774288297;0.773320854;0.772125065;0.77148509;0.771396935;0.770749927;0.769988477;0.769355118;0.768874288;0.768042624;0.767276406;0.766611278;0.765925109;0.765249372;0.764818609;0.764516532;0.763912857;0.763058662;0.762630284;0.762653053;0.761781096;0.760763228;0.7600348;0.759747803;0.759438276;0.758841455;0.758002162;0.757160187;0.756402493;0.755920529;0.755578578;0.754908323;0.753992736;0.753321588;0.753021359;0.752335191;0.75169003;0.751159787;0.750633061;0.749706924;0.748992383;0.74848038;0.74782294;0.747139633;0.746482074;0.745787084;0.744906127;0.744171262;0.743629575;0.743151009;0.742396355;0.741605163;0.74108243;0.740877569;0.740165293;0.739405274;0.738790751;0.738323152;0.737767696;0.737254024;0.736757696;0.736160457;0.736002386;0.735734999;0.734983802;0.733863354;0.733155489;0.732936203;0.732862592;0.732061684;0.731512249;0.730986536;0.730073452;0.729281902;0.728738606;0.728254557;0.727524102;0.726719856;0.726136625;0.725789487;0.725413501;0.72468096;0.723847687;0.723133385;0.722570419;0.721729815;0.721081972;0.720846057;0.720357835;0.719479918;0.718624294;0.718125522;0.7175017;0.716691136;0.715948224;0.715462029;0.714428484;0.713547647;0.713000357;0.712537229;0.711761296;0.71104902;0.710614741;0.71038413;0.709764481;0.708993733;0.708242416;0.70744282;0.706507206;0.705875754;0.705652893;0.705225527;0.704777837;0.704344809;0.703864574;0.703095257;0.702535033;0.702010036;0.701320767;0.700948477;0.700346351;0.699775159;0.699578345;0.698994935;0.698393643;0.697919846;0.697471619;0.696448207;0.695443809;0.694798708;0.694522023;0.694236159;0.693476558;0.692407966;0.69166863;0.691201329;0.690792799;0.690359592;0.689967036;0.689454556;0.68880254;0.688004136;0.687065244;0.686320543;0.685961664;0.685815871;0.685304582;0.684514046;0.683579683;0.682668567;0.681935668;0.681413889;0.680855036;0.680178761;0.679696798;0.67905128;0.678498328;0.678178489;0.677734971;0.677411258;0.6769045;0.67604506;0.675198555;0.674793005;0.674511611;0.673934877;0.672926247;0.672538161;0.672346294;0.671911597;0.671777666;0.671561122;0.671189308;0.670692265;0.670123041;0.669346452;0.668993294;0.669171989;0.668415546;0.667663455;0.66705215;0.666519761;0.666048169;0.665555418;0.665224731;0.664977431;0.66410768;0.663496315;0.662800848;0.66175586;0.660829365;0.660193086;0.65966624;0.659100771;0.658580005;0.658169985;0.657677531;0.657017767;0.656356037;0.655860543;0.655261874;0.654498637;0.653831005;0.652579546;0.65170145;0.651250541;0.650205255;0.649962544;0.649089813;0.647798955;0.647726059;0.646969199;0.646092474;0.645189583;0.653372407;0.65285778;0.652307034;0.651746511;0.651131094;0.650411189;0.649814188;0.649276197;0.648640037;0.64796102;0.647362888;0.646719217;0.646135688;0.645694494;0.645170629;0.644577444;0.644031227;0.643546402;0.642955124;0.642335951;0.64190495;0.641458154;0.641097426;0.640580654;0.640039623;0.639488816;0.638810754;0.638238966;0.637806535;0.637244403;0.636637449;0.63595891;0.635350466;0.634766936;0.634256482;0.633900881;0.633384705;0.632814527;0.632222056;0.631547332;0.630942166;0.630418003;0.629798174;0.629140615;0.628457785;0.627693295;0.626940846;0.626263976;0.625606239;0.624946356;0.624343395;0.623759687;0.623174906;0.622580469;0.622030079;0.621405721;0.620723188;0.620054722;0.61932683;0.618655324;0.618010819;0.61740303;0.61673218;0.616101742;0.615413308;0.614713609;0.614109397;0.613497138;0.612900317;0.612391651;0.611848354;0.611318588;0.61074394;0.6101529;0.609553277;0.608903527;0.608330131;0.607802391;0.607249141;0.606677413;0.606123447;0.60557431;0.605031729;0.604516804;0.604000866;0.60346359;0.602956176;0.602445424;0.601911843;0.601445019;0.601023555;0.600573838;0.600128174;0.599742711;0.59929055;0.598818839;0.598377585;0.597918212;0.597472847;0.597040594;0.59662652;0.596213222;0.595830083;0.595421672;0.595001519;0.594603837;0.594227791;0.593801439;0.593396425;0.592989385;0.592515826;0.592063069;0.591652989;0.591257632;0.590910137;0.590543807;0.590092421;0.589681208;0.589327157;0.58897686;0.588662148;0.588350236;0.58803302;0.587690175;0.58733815;0.587027669;0.586777985;0.586527348;0.586341083;0.586178184;0.585981786;0.585788608;0.585632205;0.585585177;0.585594177;0.585588992;0.585591137;0.585641682;0.585675478;0.585771561;0.58595711;0.586140931;0.586351693;0.586562932;0.586737335;0.586891949;0.587029278;0.587137938;0.587291002;0.587470293;0.587612629;0.587681592;0.587672353;0.587611794;0.587545514;0.587425172;0.587323725;0.587246239;0.587098598;0.58692354;0.586708248;0.58644402;0.586155653;0.585842073;0.585545778;0.585271478;0.584974349;0.58468467;0.584383428;0.584069192;0.583767056;0.583466053;0.583198905;0.582887769;0.582531512;0.582214355;0.58189714;0.581582963;0.581295013;0.581002414;0.580712378;0.580414236;0.580085456;0.579757929;0.579432428;0.579069853;0.578796804;0.578545213;0.578238726;0.57794565;0.577611744;0.577221751;0.576830804;0.576415658;0.576012254;0.575599194;0.575183094;0.574800014;0.574368477;0.573891103;0.573411524;0.572966278;0.57252568;0.57213217;0.571734667;0.571296692;0.570858121;0.570400178;0.569912612;0.569447815;0.568990231;0.568512321;0.568049848;0.5675475;0.566994369;0.56646812;0.565946698;0.565406382;0.564871192;0.564321041;0.563740969;0.563171089;0.562592626;0.56199789;0.561413944;0.560821235;0.56023401;0.559638679;0.559087873;0.558557391;0.558015823;0.557496071;0.556983352;0.556442201;0.555951178;0.555534899;0.555063069;0.554573298;0.554096043;0.55358398;0.553109109;0.552652597;0.552226663;0.551827013;0.551421881;0.551019013;0.55063957;0.550228834;0.549795151;0.549379647;0.548961103;0.548543632;0.548126519;0.547723472;0.547326267;0.546928227;0.54653573;0.546153724;0.545764685;0.545392931;0.545043945;0.544696987;0.544351816;0.544021249;0.543692231;0.54338187;0.543039262;0.54268223;0.542342782;0.541980743;0.541659951;0.541394114;0.541068554;0.540705681;0.540396929;0.540085018;0.539785445;0.539551258;0.539271832;0.538932621;0.538649499;0.538399696;0.538134813;0.537879884;0.537639201;0.537374854;0.537143409;0.536943913;0.536802709;0.5365991;0.53637898;0.53619653;0.535999119;0.535826385;0.535701931;0.535557926;0.535380363;0.535254896;0.535163939;0.535074472;0.535004735;0.534944892;0.534882188;0.534847677;0.534829974;0.53483814;0.534874976;0.534924209;0.535001874;0.535068929;0.535187781;0.53533119;0.535489142;0.535672307;0.535889268;0.536127806;0.53637886;0.536663473;0.536962152;0.537248433;0.537593424;0.537992597;0.538398087;0.538844049;0.539278328;0.539716899;0.540167153;0.540611565;0.54108727;0.541582108;0.542093992;0.542628467;0.543180943;0.543739617;0.544311821;0.544871509;0.545405924;0.545953393;0.546481907;0.547051311;0.547653079;0.548235416;0.548830628;0.549412906;0.549987912;0.550550342;0.551101685;0.551666796;0.552225232;0.552782953;0.553359568;0.553924143;0.554487407;0.555031538;0.555554092;0.556087971;0.556612551;0.557121515;0.557652891;0.558260798;0.558937609;0.559669793;0.560457468;0.561318099;0.562251985;0.563218415;0.564305842;0.565483987;0.566762924;0.56812644;0.569593191;0.571116865;0.572848082;0.57471323;0.576728404;0.578897357;0.581268668;0.583780706;0.586508155;0.589423656;0.592617512;0.596087635;0.599701762;0.603557527;0.60760653;0.611881614;0.616261303;0.620820522;0.625625551;0.630535424;0.635563135;0.640663743;0.645825982;0.651012897;0.656252146;0.661374569;0.666551411;0.671622097;0.676613569;0.681461036;0.686296701;0.690889359;0.695282102;0.69946146;0.703463256;0.707277298;0.71085012;0.714237094;0.717431247;0.720443308;0.723216951;0.725812972;0.728223681;0.730471253;0.732506394;0.734392285;0.73610121;0.737655461;0.739133179;0.740480661;0.741731286;0.742897093;0.743969023;0.74490869;0.745723307;0.746491611;0.747107029;0.747590721;0.748066902;0.748486221;0.748855889;0.749179363;0.74945575;0.749676645;0.74985677;0.749987543;0.750067234;0.75012517;0.75009644;0.749964476;0.749853551;0.749691188;0.749522924;0.749356389;0.749168515;0.748947501;0.748714268;0.748478115;0.748224616;0.747949421;0.747660041;0.747364879;0.74702996;0.746665537;0.746247232;0.7458179;0.745358765;0.744859159;0.744325578;0.743677795;0.743005037;0.742369413;0.741705298;0.741005957;0.740239382;0.739358544;0.738389015;0.737402797;0.73636961;0.735316515;0.734230518;0.73309803;0.731938899;0.730706811;0.729419053;0.728096068;0.726705015;0.725324035;0.723915696;0.722475231;0.721006036;0.719542623;0.718046606;0.716564775;0.715099037;0.713620424;0.712123275;0.710645676;0.709159195;0.707692623;0.70626837;0.70480603;0.7033391;0.701870382;0.700390577;0.698867202;0.697390258;0.695910454;0.694405496;0.692899227;0.6913535;0.689805031;0.688272178;0.686740816;0.685239315;0.683702469;0.682153106;0.680669427;0.679175854;0.677713156;0.676308692;0.674871981;0.673440039;0.672048211;0.67066592;0.669302046;0.667921484;0.666563749;0.665182531;0.663768649;0.662362576;0.66096276;0.659552097;0.658130944;0.656720519;0.655304313;0.653915107;0.652523041;0.651154339;0.649805903;0.648487389;0.647199929;0.645907342;0.644631982;0.643368244;0.642108619;0.640854597;0.6396209;0.638375044;0.637125731;0.635876894;0.634621263;0.633396327;0.632177413;0.630966008;0.629769206;0.628593564;0.627421737;0.6262694;0.625145197;0.624031901;0.622932017;0.621839106;0.620763123;0.619698584;0.618645728;0.617596209;0.616533399;0.615514934;0.614520788;0.613535345;0.612586737;0.6116696;0.61075455;0.609851122;0.608948112;0.608068645;0.607216895;0.606368065;0.605546534;0.604725063;0.603874683;0.603010893;0.60211432;0.601271927;0.600513995;0.599763095;0.599049926;0.598337412;0.597576261;0.596785724;0.596013129;0.595271289;0.594502568;0.593722999;0.592959285;0.592195332;0.591429353;0.590704024;0.590000868;0.589287996;0.588595271;0.587908626;0.587202907;0.586484432;0.585779607;0.585083246;0.584402621;0.583754539;0.583125412;0.58250922;0.581909359;0.581350565;0.580836535;0.580336273;0.579857945;0.579357266;0.578805625;0.578280866;0.577739298;0.577174664;0.576658726;0.576117337;0.575583994;0.575117707;0.574638963;0.574167669;0.573717952;0.573293746;0.572850287;0.572414935;0.57197839;0.571535349;0.57109493;0.570668757;0.570213139;0.56971848;0.569292426;0.568879247;0.568481147;0.568128049;0.567770898;0.567418993;0.567051947;0.566696942;0.56633985;0.565976083;0.565581858;0.565178633;0.564803064;0.564385295;0.564037442;0.563734114;0.563475192;0.563261211;0.56301713;0.562811315;0.562607169;0.562372804;0.56218493;0.56204164;0.56190449;0.561763465;0.561635196;0.561552465;0.561436772;0.561299682;0.561232984;0.561173499;0.561153114;0.561182797;0.561154544;0.561141014;0.56113714;0.561134279;0.561195493;0.561266363;0.561328769;0.56139946;0.561484754;0.561613381;0.561828554;0.562088311;0.562365711;0.562682211;0.562964082;0.563251495;0.5636006;0.563943207;0.564317167;0.564760566;0.565234542;0.565722108;0.566266358;0.566798389;0.567344725;0.567877352;0.568422496;0.568935633;0.569429278;0.569900155;0.570326328;0.570763111;0.571185648;0.57161051;0.572028697;0.572466016;0.572906733;0.573356688;0.573827863;0.574294925;0.574759185;0.575234354;0.575715184;0.576206446;0.576739013;0.577211976;0.577639818;0.57810688;0.578531325;0.579017103;0.579566419;0.580112576;0.580686569;0.581249893;0.581819475;0.582396865;0.5829826;0.583551764;0.584136069;0.584688425;0.585241079;0.585717559;0.586152434;0.586558759;0.586888611;0.587235808;0.587596893;0.587886572;0.588139832;0.58835417;0.588511527;0.588658988;0.588762522;0.588893831;0.588991284;0.589164317;0.589381278;0.589589;0.589808941;0.590098202;0.590412796;0.590746939;0.591137469;0.591561437;0.59199667;0.592495918;0.593037903;0.593615353;0.594198942;0.594858229;0.595486879;0.59610045;0.596701503;0.597294569;0.597881556;0.598456681;0.599020541;0.599573314;0.60012579;0.600682437;0.601197004;0.601693332;0.602178812;0.602651238;0.603068709;0.603479803;0.60381639;0.604033411;0.604320824;0.604604244;0.604886532;0.605188549;0.60548538;0.605758607;0.606053054;0.606386721;0.606664181;0.606925905;0.607169271;0.607376158;0.60756284;0.607773662;0.607951105;0.608124316;0.608232915;0.60831511;0.608413756;0.608512461;0.608620286;0.608776987;0.609015584;0.609142065;0.609254062;0.609342456;0.609301388;0.609328687;0.609432518;0.60946691;0.609461069;0.635638475;0.635654509;0.635589242;0.635650992;0.635409236;0.634983778;0.634513855;0.633877337;0.633215308;0.632499397;0.631719232;0.63093859;0.630058885;0.629264712;0.628401697;0.627711594;0.627052784;0.626512766;0.626124263;0.625785828;0.625455081;0.625179291;0.624941826;0.624668777;0.624571383;0.624620676;0.624636292;0.624741614;0.624871314;0.624894619;0.624966383;0.625085115;0.625224054;0.625402689;0.625576913;0.625884056;0.626252234;0.626671016;0.627166748;0.627765417;0.628367126;0.628992319;0.629786909;0.630690634;0.631694555;0.632819295;0.634048045;0.635422587;0.636786222;0.638245702;0.639811218;0.64141649;0.643265367;0.645308316;0.647571981;0.649933696;0.652393222;0.655128658;0.658042133;0.661193132;0.6645661;0.668150604;0.671892822;0.675879061;0.68009156;0.68456912;0.689296782;0.694290638;0.699493706;0.705002904;0.710863173;0.716976285;0.723340452;0.729830265;0.736431003;0.743212998;0.750232637;0.757130265;0.764120758;0.771222591;0.778186738;0.785154402;0.792072713;0.79884845;0.805466354;0.811864495;0.817986846;0.823870599;0.829566002;0.835071146;0.8403126;0.845306039;0.850031912;0.854335427;0.858299792;0.861977816;0.865362644;0.868495882;0.871429265;0.874101698;0.87655282;0.878741682;0.880657792;0.882284939;0.883704126;0.88500005;0.886213779;0.88738662;0.88836807;0.88927108;0.890085995;0.890861094;0.891418457;0.892046452;0.892628491;0.893008053;0.893446684;0.893754065;0.894019842;0.894373238;0.894670069;0.894958138;0.89519316;0.895419598;0.895557642;0.895611882;0.895619214;0.895623565;0.895453155;0.895326495;0.895212829;0.895038724;0.894847691;0.894648314;0.894419372;0.894138157;0.893855989;0.893568695;0.893176913;0.892651618;0.892174244;0.891597569;0.891054034;0.89059025;0.890012264;0.889308929;0.888704062;0.888101995;0.887468934;0.886900485;0.886359513;0.885796368;0.885270715;0.884799957;0.88446331;0.883976519;0.883487165;0.882946193;0.882319272;0.881666124;0.881048441;0.880281627;0.879448652;0.878554106;0.877669096;0.876696646;0.875838399;0.875068784;0.874199748;0.873311758;0.872435749;0.871525764;0.870575249;0.86967355;0.868813932;0.867975116;0.867201805;0.866347015;0.865541041;0.864614546;0.863527179;0.862548649;0.861611605;0.860630214;0.859625161;0.858663559;0.857652128;0.856715202;0.855792522;0.854964018;0.854045033;0.853083491;0.852154672;0.851232708;0.850289583;0.849411964;0.848410428;0.847312033;0.846225083;0.845014453;0.843871832;0.84285599;0.841925383;0.840980709;0.840185225;0.839245737;0.838198245;0.837223291;0.836262465;0.835285187;0.834355474;0.833376586;0.832398772;0.831288159;0.830276132;0.829216897;0.828305781;0.82751596;0.826643229;0.825886726;0.824965179;0.823874593;0.822889507;0.821852267;0.82088089;0.819997072;0.819100201;0.818214118;0.817328215;0.816481769;0.815641463;0.814850628;0.814143121;0.813362479;0.812552154;0.811793923;0.811035872;0.810276389;0.80958569;0.808852494;0.808096766;0.807260036;0.806555927;0.805935502;0.805204153;0.804485321;0.803751826;0.802929997;0.802154005;0.801441431;0.800682425;0.799871266;0.799085259;0.798323154;0.797535717;0.796738744;0.795973063;0.795086443;0.794098973;0.793207169;0.792247593;0.791384459;0.790720165;0.789831102;0.788851976;0.787877619;0.786787629;0.785727143;0.784653962;0.78361547;0.782586396;0.781515777;0.780542612;0.779643536;0.77874732;0.777942061;0.77702266;0.776048183;0.775123835;0.774119914;0.773208499;0.772409856;0.771573007;0.770772934;0.769931614;0.769093633;0.768183947;0.767305553;0.766422331;0.765504003;0.764533699;0.763647437;0.762735248;0.761899889;0.761161327;0.76042074;0.759756565;0.759007514;0.75815773;0.757436574;0.756751001;0.756064117;0.75540477;0.754897416;0.754227579;0.753468573;0.752731025;0.751924396;0.751208901;0.750535786;0.749820411;0.749105453;0.748456895;0.747755349;0.747154891;0.746714115;0.746199965;0.74567318;0.745201647;0.744666815;0.744080305;0.743572414;0.743072569;0.742579222;0.74212712;0.741663456;0.741217256;0.740736485;0.740221858;0.739751697;0.739193678;0.73878336;0.738534451;0.738241017;0.738024473;0.737764955;0.73752737;0.737191141;0.736898184;0.736555517;0.73638308;0.736287534;0.736166418;0.736248612;0.736099422;0.735738516;0.735525191;0.735295832;0.735088408;0.734959662;0.734817028;0.734691679;0.734482586;0.734371781;0.734216034;0.734091222;0.7339589;0.733874977;0.733867228;0.733761489;0.733654082;0.733481765;0.733213067;0.73298341;0.73273474;0.732504487;0.732297778;0.73205632;0.731820524;0.731553018;0.731255591;0.730929852;0.730569959;0.730195403;0.729798019;0.729416728;0.729110241;0.728858531;0.728601813;0.72843653;0.728151917;0.727778435;0.727487803;0.727196217;0.726907372;0.726676404;0.726403475;0.726106346;0.725788713;0.725481987;0.725135505;0.724727213;0.72429055;0.724015117;0.723699987;0.723424733;0.723216891;0.722937524;0.722556055;0.722324073;0.722171366;0.721962512;0.721813202;0.721596658;0.721292078;0.721071839;0.720832407;0.720685184;0.720669746;0.720559597;0.720459938;0.72035861;0.720246971;0.720064998;0.719834089;0.719636738;0.719403386;0.719175816;0.71902597;0.718888879;0.718800843;0.718730867;0.718678534;0.718686521;0.718696535;0.718630373;0.718744218;0.719025731;0.719207048;0.719389915;0.719683349;0.719940424;0.720300376;0.720857441;0.721365273;0.721902788;0.722419918;0.722911239;0.723457098;0.723977625;0.724557579;0.725227475;0.725918412;0.72657752;0.727324843;0.728064835;0.728865445;0.729552269;0.730220377;0.730885804;0.731413305;0.73213172;0.73296833;0.733742595;0.734542072;0.735409021;0.736271501;0.737190068;0.738287568;0.739221573;0.740081012;0.740945876;0.741677284;0.74254936;0.743560255;0.744476557;0.745506465;0.746349871;0.747059107;0.747687042;0.748033047;0.748539388;0.749258459;0.749891222;0.75094837;0.751991868;0.752998531;0.754084349;0.754977345;0.75582999;0.756547987;0.75705564;0.75766772;0.758176863;0.758826852;0.759595573;0.76025641;0.760848105;0.761615574;0.762361646;0.763260424;0.764446616;0.76549691;0.76665473;0.767576158;0.76823467;0.769096732;0.76989907;0.770777762;0.771896839;0.772911727;0.773948431;0.774788141;0.775555015;0.776230156;0.776662111;0.77710712;0.777648568;0.777963221;0.777812719;0.777894855;0.777970135;0.777887106;0.777916014;0.778156459;0.778233826;0.778094649;0.778252363;0.778576553;0.778835058;0.779189765;0.77949816;0.77964586;0.780187368;0.781031072;0.781625152;0.782334328;0.783004463;0.783571661;0.784039378;0.784421802;0.78504318;0.785466254;0.786236882;0.787579656;0.788612783;0.789506137;0.790587842;0.791771591;0.792887866;0.794225633;0.795292258;0.79603374;0.796956122;0.797917545;0.79875946;0.799702883;0.80045718;0.801020861;0.801489711;0.801774383;0.802088797;0.802197695;0.802458882;0.80288595;0.803215027;0.803348005;0.803809345;0.80452466;0.805110335;0.806043088;0.806717098;0.806883216;0.807337582;0.807995141;0.808468044;0.809064984;0.809898734;0.810357332;0.810572386;0.811020851;0.811315298;0.812060773;0.813139498;0.81406945;0.815313518;0.816011012;0.81641233;0.8169083;0.817022085;0.817720473;0.818855226;0.81950587;0.820253253;0.820774615;0.820786238;0.821258664;0.82190156;0.822563529;0.823322177;0.824154973;0.825031996;0.826125741;0.827590764;0.828522563;0.829433501;0.830110431;0.830230415;0.830709696;0.831304252;0.831921518;0.832483768;0.833315074;0.834555089;0.835066319;0.835369289;0.835701227;0.835345149;0.835862637;0.836980641;0.837884545;0.838899732;0.840019822;0.841396093;0.842310488;0.843279302;0.844036281;0.844119728;0.844726503;0.845596492;0.84635514;0.847212791;0.848063707;0.848956883;0.849646628;0.850601137;0.850661814;0.849490941;0.850040555;0.850709021;0.851735711;0.854782403;0.855756164;0.855302215;0.855854154;0.85587275;0.856761634;0.858580947;0.860163152;0.862297595;0.863383889;0.863972545;0.864802063;0.864840746;0.865942299;0.868261278;0.868778467;0.868259668;0.869376898;0.870439172;0.871258438;0.87369138;0.873978853;0.87220633;0.872146368;0.872306228;0.872747958;0.873688936;0.874062181;0.874324858;0.874386072;0.874849975;0.875021458;0.875611126;0.876594424;0.877214909;0.877531171;0.877435684;0.877462983;0.879411757;0.880351782;0.881493866;0.883587062;0.882015705;0.88072443;0.88185668;0.881850719;0.881992996;0.884142637;0.884578645;0.88272506;0.882724345;0.882386982;0.883657992;0.888914943;0.891129971;0.892769933;0.893110216;0.890197217;0.888706505;0.886987031;0.886330009;0.885918379;0.886430085;0.888149738;0.889754236;0.893296301;0.894672871;0.894313574;0.895301104
