1100;1105;1110;1115;1120;1125;1130;1135;1140;1145;1150;1155;1160;1165;1170;1175;1180;1185;1190;1195;1200;1205;1210;1215;1220;1225;1230;1235;1240;1245;1250;1255;1260;1265;1270;1275;1280;1285;1290;1295;1301;1306;1311;1316;1321;1326;1331;1336;1341;1346;1351;1356;1361;1366;1371;1376;1381;1386;1391;1396;1401;1406;1411;1416;1421;1426;1431;1436;1441;1446;1451;1456;1461;1466;1471;1476;1481;1486;1491;1496;1502;1507;1512;1517;1522;1527;1532;1537;1542;1547;1552;1557;1562;1567;1572;1577;1582;1587;1592;1597;1602;1607;1612;1617;1622;1627;1632;1637;1642;1647;1652;1657;1662;1667;1672;1677;1682;1687;1692;1697;1703;1708;1713;1718;1723;1728;1733;1738;1743;1748;1753;1758;1763;1768;1773;1778;1783;1788;1793;1798;1803;1808;1813;1818;1823;1828;1833;1838;1843;1848;1853;1858;1863;1868;1873;1878;1883;1888;1893;1898;1904;1909;1914;1919;1924;1929;1934;1939;1944;1949;1954;1959;1964;1969;1974;1979;1984;1989;1994;1999;2004;2009;2014;2019;2024;2029;2034;2039;2044;2049;2054;2059;2064;2069;2074;2079;2084;2089;2094;2100
0,510107;0,509622;0,509603;0,506256;0,506114;0,513206;0,511084;0,510567;0,518668;0,511749;0,516131;0,513520;0,517661;0,514317;0,515936;0,524784;0,524144;0,527892;0,523930;0,527526;0,528763;0,536242;0,537090;0,537119;0,537543;0,539976;0,542687;0,542115;0,549946;0,551910;0,557083;0,556655;0,563301;0,568257;0,571703;0,573671;0,574504;0,586345;0,589758;0,597261;0,599107;0,602472;0,610645;0,618197;0,622705;0,629911;0,632576;0,634228;0,647952;0,656826;0,653047;0,665332;0,679342;0,680137;0,687378;0,690618;0,702965;0,704443;0,720083;0,726400;0,728882;0,730265;0,738990;0,749459;0,750239;0,761630;0,767388;0,770574;0,774765;0,782076;0,790780;0,791383;0,796588;0,796914;0,802969;0,809279;0,807799;0,806852;0,816222;0,814530;0,817380;0,815458;0,818807;0,818970;0,815987;0,815766;0,813321;0,816999;0,808222;0,814332;0,808180;0,803628;0,803554;0,799602;0,795562;0,793257;0,791127;0,783429;0,786542;0,774372;0,773642;0,768904;0,762159;0,761461;0,750567;0,748635;0,745609;0,738153;0,727893;0,735382;0,728263;0,723384;0,724706;0,714803;0,707385;0,707494;0,708735;0,701442;0,696565;0,694272;0,688741;0,689739;0,688194;0,680317;0,677234;0,679568;0,673094;0,674369;0,667875;0,676467;0,666548;0,667475;0,667530;0,661706;0,666158;0,664186;0,661293;0,659428;0,664078;0,659595;0,658810;0,655552;0,659084;0,661197;0,655775;0,652644;0,654204;0,653665;0,656705;0,652210;0,651715;0,648181;0,651663;0,651570;0,649819;0,646744;0,646254;0,642665;0,645101;0,644032;0,639813;0,638300;0,635492;0,634282;0,631004;0,626969;0,630801;0,628296;0,627169;0,624847;0,618321;0,610721;0,614384;0,610644;0,605598;0,602654;0,605019;0,595780;0,594031;0,593784;0,588488;0,583920;0,581353;0,576818;0,575699;0,572669;0,568836;0,561262;0,566905;0,562308;0,555880;0,556774;0,550319;0,551729;0,547848;0,544717;0,540051;0,541817;0,538301;0,531927
0,571066;0,579620;0,582374;0,587070;0,596883;0,601823;0,607301;0,611687;0,620504;0,627898;0,636401;0,633599;0,641753;0,646950;0,657517;0,665209;0,670695;0,681268;0,689996;0,690205;0,696301;0,700684;0,709913;0,718531;0,719743;0,727540;0,740556;0,738981;0,744461;0,750448;0,758081;0,763774;0,765010;0,774129;0,774026;0,777003;0,779069;0,780038;0,790133;0,789535;0,788406;0,784209;0,789294;0,792958;0,786267;0,787968;0,784246;0,786885;0,788789;0,787330;0,783217;0,777766;0,777663;0,779544;0,772013;0,769103;0,768939;0,767221;0,759460;0,756740;0,755107;0,746155;0,745345;0,740858;0,736445;0,738403;0,730299;0,732547;0,727056;0,724408;0,715983;0,709821;0,708485;0,704643;0,702225;0,698776;0,694399;0,697299;0,693151;0,689776;0,688446;0,681344;0,685778;0,680757;0,679611;0,675218;0,680521;0,675855;0,677363;0,678016;0,678104;0,675560;0,673236;0,675761;0,674777;0,671871;0,675225;0,677056;0,672998;0,678354;0,677335;0,681006;0,681327;0,677899;0,681532;0,680208;0,680650;0,681060;0,683295;0,686162;0,680559;0,684546;0,679925;0,680082;0,675197;0,681585;0,677998;0,677868;0,674486;0,675345;0,671173;0,667701;0,665926;0,674384;0,668027;0,662566;0,662846;0,656546;0,655406;0,654174;0,648337;0,646158;0,641782;0,638170;0,637402;0,632389;0,631934;0,623345;0,618107;0,614503;0,612436;0,606575;0,603677;0,597954;0,600315;0,591652;0,591978;0,585477;0,576416;0,577189;0,572475;0,570765;0,568805;0,563800;0,555425;0,551894;0,552670;0,550908;0,548806;0,540358;0,541076;0,534441;0,529508;0,528978;0,534679;0,529760;0,526593;0,524529;0,518617;0,521643;0,522601;0,519769;0,517112;0,509340;0,511111;0,512251;0,509309;0,504291;0,506939;0,506874;0,506059;0,503572;0,504328;0,504946;0,501079;0,500523;0,498652;0,500204;0,493971;0,501959;0,501192;0,503331;0,500742;0,497342;0,498470;0,495028;0,496405;0,497563;0,492156;0,497879
0,507404;0,511069;0,508485;0,512678;0,510035;0,513204;0,518561;0,517606;0,518610;0,519502;0,520985;0,522751;0,521526;0,522700;0,522466;0,525706;0,532765;0,533892;0,532084;0,535961;0,536255;0,539818;0,542132;0,542916;0,548851;0,546302;0,555109;0,553519;0,559294;0,557445;0,565053;0,568689;0,567189;0,579827;0,579571;0,585876;0,586341;0,590966;0,592554;0,597816;0,606193;0,607216;0,611982;0,616154;0,621693;0,629810;0,634066;0,638460;0,642651;0,651583;0,655747;0,660907;0,666993;0,678198;0,677726;0,687843;0,693794;0,696716;0,704046;0,709478;0,714076;0,721699;0,730902;0,724488;0,737924;0,741386;0,746611;0,750041;0,753835;0,762500;0,759888;0,762395;0,768557;0,772336;0,773451;0,778914;0,779329;0,779715;0,776610;0,776759;0,777886;0,781768;0,780382;0,774513;0,777709;0,778029;0,773463;0,770787;0,772059;0,765477;0,768390;0,763669;0,756224;0,752765;0,752538;0,752082;0,747261;0,738393;0,730807;0,727729;0,724405;0,723908;0,716879;0,712194;0,711598;0,702789;0,704739;0,693634;0,690393;0,686767;0,678072;0,680371;0,676357;0,672005;0,667576;0,667138;0,664806;0,660548;0,664192;0,659472;0,654882;0,657034;0,651380;0,649216;0,647093;0,650806;0,649305;0,647267;0,657203;0,651280;0,656868;0,650857;0,653355;0,654612;0,656962;0,655755;0,656817;0,660805;0,659790;0,658052;0,661847;0,663278;0,664604;0,669276;0,666240;0,671657;0,670323;0,668446;0,677352;0,674379;0,674520;0,679331;0,678014;0,675986;0,679296;0,680856;0,676703;0,681047;0,675133;0,673819;0,672771;0,672469;0,673958;0,668431;0,666663;0,660650;0,665153;0,660273;0,656454;0,657305;0,652171;0,644676;0,646763;0,645052;0,635884;0,631823;0,632878;0,626640;0,621441;0,620105;0,616990;0,615137;0,602108;0,600752;0,597422;0,592227;0,590816;0,580997;0,578345;0,578349;0,577541;0,567212;0,563253;0,562834;0,558839;0,559333;0,554988;0,544545;0,543705;0,540023
0,558082;0,565331;0,571706;0,575363;0,580439;0,585842;0,592767;0,595231;0,602228;0,605184;0,611188;0,615550;0,623200;0,627874;0,633650;0,644559;0,644686;0,652251;0,658593;0,661369;0,665000;0,676495;0,682370;0,684062;0,689368;0,697863;0,697259;0,702820;0,710190;0,716174;0,721485;0,726903;0,727367;0,733168;0,739441;0,739661;0,743439;0,743607;0,749620;0,750604;0,753648;0,758988;0,756619;0,758503;0,757299;0,754393;0,766265;0,760287;0,753707;0,761381;0,757345;0,751025;0,755785;0,751438;0,753554;0,746234;0,745934;0,747472;0,741059;0,739513;0,737441;0,735944;0,731505;0,728977;0,729933;0,726165;0,720656;0,720020;0,716416;0,714197;0,707137;0,703856;0,702460;0,697349;0,691956;0,696791;0,691843;0,686156;0,682971;0,678036;0,676725;0,669082;0,668891;0,668398;0,668628;0,662857;0,654412;0,655443;0,650892;0,649641;0,643451;0,646094;0,642990;0,635939;0,633384;0,639814;0,628658;0,627122;0,622469;0,622326;0,619885;0,623933;0,618923;0,617851;0,612003;0,610636;0,608310;0,609694;0,610212;0,611077;0,610174;0,608965;0,611206;0,607900;0,607796;0,606444;0,602045;0,604192;0,603861;0,604752;0,600981;0,607245;0,610330;0,608764;0,610737;0,608669;0,604680;0,613808;0,612928;0,607232;0,615205;0,619598;0,619091;0,618529;0,622954;0,623928;0,626791;0,626314;0,633504;0,628908;0,629458;0,634877;0,634683;0,638879;0,640437;0,641629;0,643147;0,639809;0,639428;0,645758;0,642878;0,647165;0,647728;0,645345;0,647129;0,649803;0,645228;0,648264;0,651161;0,647781;0,646964;0,641648;0,642195;0,639834;0,640877;0,638123;0,637370;0,635923;0,633824;0,630577;0,628524;0,625484;0,620944;0,620756;0,620652;0,611893;0,611460;0,606233;0,605231;0,598835;0,596135;0,595146;0,587845;0,591669;0,582718;0,579276;0,576447;0,569619;0,567091;0,569284;0,561763;0,558945;0,557992;0,560050;0,553673;0,546613;0,550193;0,541583;0,540372;0,538134
0,520137;0,520094;0,522718;0,520552;0,525443;0,526240;0,525139;0,532114;0,534604;0,529389;0,532287;0,537699;0,539430;0,533622;0,543851;0,544837;0,546348;0,542139;0,549653;0,545671;0,551308;0,555571;0,554931;0,563269;0,567656;0,562370;0,563983;0,562840;0,572504;0,569299;0,575196;0,574307;0,576276;0,575794;0,580562;0,583376;0,586250;0,584137;0,585331;0,591910;0,594300;0,593971;0,597109;0,594739;0,599428;0,600522;0,602816;0,602098;0,608528;0,599510;0,607967;0,609059;0,608085;0,609454;0,611795;0,614780;0,615452;0,619546;0,620565;0,621003;0,620097;0,622455;0,626563;0,629075;0,630414;0,634389;0,635946;0,638385;0,642911;0,645209;0,648562;0,649237;0,656013;0,649109;0,657338;0,665753;0,664108;0,671299;0,673537;0,676246;0,682029;0,686446;0,693253;0,696168;0,698841;0,699469;0,712715;0,713785;0,722410;0,723697;0,731801;0,736127;0,734970;0,746894;0,751052;0,758343;0,762641;0,769550;0,769798;0,778919;0,783627;0,789679;0,792758;0,798104;0,800804;0,803320;0,805013;0,813267;0,813429;0,821877;0,824761;0,830237;0,832830;0,831162;0,830419;0,837639;0,831940;0,836572;0,837199;0,833805;0,832451;0,840053;0,837888;0,838529;0,834725;0,829301;0,829181;0,828038;0,818424;0,820444;0,817263;0,808753;0,807565;0,799607;0,797830;0,791907;0,784966;0,775685;0,779679;0,769037;0,763865;0,758055;0,755302;0,751520;0,737503;0,730915;0,730917;0,721470;0,714394;0,707551;0,706092;0,695265;0,693666;0,686208;0,679313;0,675025;0,668840;0,661205;0,661743;0,649510;0,651580;0,639087;0,635427;0,637270;0,630928;0,618145;0,616022;0,612432;0,611891;0,605713;0,603610;0,596853;0,595484;0,588962;0,585944;0,581701;0,576472;0,578261;0,574118;0,570774;0,568840;0,567616;0,559228;0,554950;0,553056;0,554934;0,554810;0,547321;0,553631;0,548044;0,541867;0,540999;0,542020;0,533958;0,532640;0,532714;0,533647;0,532953;0,533671;0,534020
0,570301;0,571707;0,574259;0,578579;0,584189;0,593516;0,596729;0,600107;0,606334;0,612152;0,618227;0,625651;0,635870;0,640643;0,645880;0,642866;0,656341;0,658418;0,667983;0,670516;0,679954;0,681857;0,690218;0,699148;0,701751;0,711113;0,711100;0,718501;0,725102;0,727124;0,731445;0,741983;0,739424;0,739155;0,750000;0,753044;0,753190;0,754852;0,758289;0,760171;0,762527;0,760457;0,764567;0,763443;0,762849;0,762393;0,760338;0,762762;0,763003;0,759486;0,760801;0,753480;0,754205;0,749677;0,753704;0,744073;0,745263;0,740045;0,737939;0,733704;0,733782;0,728522;0,723476;0,724736;0,715889;0,715209;0,711829;0,708781;0,704796;0,703233;0,708255;0,699768;0,691406;0,690364;0,693312;0,684476;0,688320;0,688455;0,681330;0,679903;0,673479;0,678596;0,674392;0,676601;0,675690;0,670986;0,667183;0,672159;0,673122;0,676790;0,675089;0,668310;0,673899;0,670752;0,672577;0,669886;0,671360;0,673801;0,672202;0,676479;0,674840;0,678200;0,677475;0,679733;0,678470;0,677114;0,675022;0,683073;0,678970;0,679486;0,684096;0,682941;0,680674;0,686573;0,688424;0,685342;0,681919;0,680964;0,681078;0,686136;0,683608;0,680762;0,681524;0,684770;0,681354;0,676436;0,677552;0,675181;0,673915;0,671269;0,665964;0,668566;0,662578;0,659249;0,661720;0,655339;0,649762;0,654285;0,653182;0,644198;0,645095;0,643386;0,640152;0,635034;0,630534;0,626594;0,626532;0,619896;0,620764;0,618960;0,616214;0,609344;0,605718;0,604203;0,599779;0,600000;0,597632;0,593345;0,592282;0,587778;0,587978;0,583169;0,583485;0,582094;0,575517;0,572257;0,574187;0,572611;0,565042;0,563040;0,562956;0,560525;0,558151;0,554737;0,551351;0,548515;0,549188;0,549545;0,549794;0,539101;0,541221;0,534960;0,535987;0,534698;0,537897;0,529574;0,531834;0,536168;0,525704;0,529127;0,524616;0,524347;0,522277;0,518806;0,519888;0,520170;0,524419;0,520061;0,514877;0,516204
0,531049;0,533102;0,529782;0,534293;0,532104;0,538899;0,535879;0,539046;0,541885;0,544822;0,547763;0,551606;0,549524;0,560902;0,558680;0,563692;0,566270;0,572328;0,572671;0,573038;0,578527;0,582084;0,585500;0,589991;0,600286;0,597957;0,597230;0,604328;0,609595;0,614908;0,615918;0,618951;0,625893;0,626812;0,631271;0,633673;0,642773;0,640893;0,650336;0,657344;0,655546;0,663170;0,663941;0,674063;0,679085;0,679533;0,681854;0,693477;0,694170;0,699262;0,705349;0,710898;0,712356;0,712055;0,721634;0,726569;0,729079;0,731637;0,732799;0,745122;0,744879;0,750070;0,753229;0,757988;0,763660;0,753434;0,765665;0,761498;0,772190;0,775699;0,771359;0,776753;0,776431;0,785534;0,779780;0,784456;0,778810;0,780552;0,784952;0,786017;0,779224;0,779789;0,782227;0,773191;0,778141;0,776094;0,773238;0,770890;0,766002;0,766466;0,760230;0,762876;0,755522;0,749877;0,748708;0,746689;0,737712;0,738038;0,735372;0,721952;0,721129;0,718253;0,714841;0,706524;0,708684;0,702145;0,693381;0,696414;0,685820;0,684475;0,678225;0,675039;0,674401;0,669086;0,669254;0,665364;0,654680;0,653240;0,654163;0,644379;0,649999;0,647124;0,642814;0,641122;0,638376;0,636554;0,638898;0,632539;0,631815;0,633240;0,633978;0,629497;0,632649;0,634058;0,630055;0,630058;0,631769;0,627043;0,630060;0,631127;0,627015;0,632393;0,630543;0,629899;0,632814;0,631835;0,630548;0,632869;0,633048;0,629596;0,629283;0,629992;0,634863;0,631869;0,629214;0,631186;0,623207;0,624288;0,625790;0,625301;0,622373;0,628840;0,623387;0,619764;0,615346;0,617019;0,614573;0,609278;0,613119;0,611087;0,606020;0,606686;0,602164;0,596293;0,600177;0,590659;0,589520;0,588233;0,583321;0,580032;0,580126;0,573759;0,571544;0,569094;0,566652;0,559825;0,559300;0,560800;0,553591;0,551783;0,547959;0,543106;0,543827;0,541284;0,540072;0,535061;0,535214;0,530158;0,529285;0,520495
0,505806;0,504545;0,507588;0,501244;0,505047;0,506491;0,510169;0,504247;0,507818;0,503734;0,509854;0,507901;0,511625;0,511518;0,510051;0,514681;0,509810;0,512081;0,512440;0,519837;0,521442;0,518174;0,518847;0,527071;0,524420;0,520606;0,521477;0,527843;0,530613;0,526862;0,535465;0,533941;0,533314;0,533941;0,542595;0,545436;0,549153;0,544993;0,554902;0,554075;0,561368;0,567769;0,564143;0,578248;0,576795;0,584545;0,585727;0,589262;0,591895;0,596313;0,607301;0,608255;0,618054;0,620966;0,628190;0,636389;0,636503;0,647301;0,646318;0,647789;0,661686;0,665124;0,669733;0,674431;0,679751;0,689891;0,697457;0,704202;0,707804;0,711338;0,714978;0,721106;0,730558;0,735353;0,739417;0,747344;0,752407;0,759293;0,763731;0,773552;0,780794;0,780568;0,785295;0,787457;0,795568;0,798981;0,798603;0,809634;0,812007;0,817369;0,816272;0,828174;0,834465;0,834807;0,836795;0,838364;0,844339;0,846393;0,851173;0,853660;0,854347;0,858608;0,859141;0,864029;0,863465;0,864698;0,867171;0,869819;0,870231;0,867548;0,870144;0,865269;0,867574;0,868898;0,864193;0,866453;0,862817;0,858443;0,856908;0,859817;0,849132;0,849243;0,842744;0,843723;0,832619;0,832344;0,829578;0,819368;0,813495;0,812567;0,798935;0,794224;0,783849;0,782184;0,769957;0,769167;0,757812;0,751743;0,743024;0,735312;0,726040;0,721672;0,715565;0,708147;0,697096;0,688847;0,674678;0,665337;0,663669;0,659492;0,650859;0,647383;0,639001;0,630032;0,621546;0,615915;0,608370;0,607331;0,597493;0,589786;0,590922;0,581684;0,575515;0,571119;0,568210;0,562459;0,561935;0,552455;0,548624;0,546172;0,547685;0,539696;0,540470;0,534809;0,531994;0,530447;0,530097;0,523079;0,521900;0,522514;0,517582;0,520544;0,518501;0,515875;0,518564;0,511317;0,512590;0,512353;0,510050;0,509083;0,509717;0,508795;0,502424;0,503644;0,506613;0,502601;0,506674;0,505394;0,505301;0,502430
0,522736;0,518655;0,520562;0,522679;0,528134;0,529047;0,529124;0,528111;0,535933;0,531050;0,538125;0,542850;0,540980;0,539564;0,545890;0,544401;0,546625;0,543625;0,545893;0,555744;0,554195;0,553898;0,557478;0,558719;0,559475;0,563944;0,561309;0,570380;0,572047;0,573476;0,567017;0,575697;0,576317;0,577138;0,579124;0,580896;0,582420;0,583765;0,586172;0,583727;0,585832;0,589325;0,590559;0,596915;0,593558;0,592610;0,600292;0,596855;0,597124;0,604039;0,598476;0,600207;0,603506;0,602103;0,608608;0,600468;0,607117;0,606507;0,610867;0,608071;0,608478;0,611517;0,606042;0,608546;0,614176;0,610675;0,612392;0,617111;0,615277;0,618646;0,620056;0,621340;0,617553;0,618139;0,623456;0,620705;0,629544;0,623238;0,627596;0,623888;0,621775;0,626472;0,630103;0,630532;0,632674;0,634602;0,634988;0,639829;0,643788;0,642186;0,648917;0,647913;0,642657;0,650234;0,649063;0,651900;0,650737;0,656693;0,656222;0,662742;0,658035;0,665060;0,665106;0,671116;0,670829;0,673198;0,676915;0,683883;0,681308;0,681611;0,685446;0,687825;0,691149;0,692245;0,699357;0,699650;0,705791;0,707263;0,710291;0,709737;0,715749;0,720638;0,720314;0,723345;0,725371;0,726977;0,736356;0,734680;0,737406;0,741215;0,739664;0,744150;0,752188;0,749947;0,753157;0,755449;0,763609;0,762055;0,764495;0,771292;0,763944;0,767030;0,772843;0,768540;0,775230;0,774335;0,778437;0,783602;0,776843;0,777176;0,778664;0,777346;0,777306;0,776663;0,778596;0,775135;0,776729;0,772369;0,773860;0,773973;0,767219;0,761905;0,756246;0,762462;0,753468;0,749411;0,745882;0,737520;0,733075;0,737453;0,724815;0,722570;0,724928;0,717087;0,706459;0,701246;0,691925;0,687560;0,683659;0,676536;0,674394;0,666521;0,658792;0,658681;0,640239;0,640579;0,634299;0,625055;0,626014;0,617591;0,608270;0,604303;0,603396;0,594747;0,590183;0,585866;0,581993;0,574984;0,571696;0,565678
0,571427;0,578630;0,581844;0,583297;0,589264;0,598132;0,602204;0,605835;0,613020;0,618446;0,628314;0,632010;0,639131;0,646270;0,644260;0,656262;0,662648;0,664397;0,675552;0,681942;0,684660;0,694028;0,694806;0,702043;0,712865;0,717407;0,720527;0,729491;0,733906;0,731531;0,743534;0,747344;0,750237;0,752091;0,756056;0,760698;0,761503;0,763084;0,766904;0,772572;0,772981;0,773444;0,768435;0,770484;0,772636;0,775695;0,765888;0,768121;0,769553;0,765168;0,763800;0,757719;0,757728;0,756363;0,748653;0,749921;0,740250;0,744177;0,738223;0,735652;0,731923;0,729042;0,722467;0,712595;0,709567;0,706810;0,703122;0,700431;0,691775;0,698699;0,684531;0,678333;0,676412;0,672791;0,666716;0,661761;0,654515;0,652132;0,647400;0,644985;0,640849;0,637973;0,630616;0,631103;0,625628;0,624291;0,621358;0,615829;0,617886;0,607350;0,614099;0,603619;0,600047;0,600765;0,599056;0,599295;0,593302;0,596195;0,591292;0,594240;0,593487;0,592832;0,591279;0,589731;0,584619;0,586954;0,587457;0,583093;0,583015;0,583901;0,582298;0,586881;0,579845;0,585713;0,589208;0,582997;0,582227;0,585309;0,586565;0,589127;0,592046;0,593943;0,596020;0,596976;0,599360;0,599100;0,603309;0,605749;0,605195;0,607961;0,608938;0,609583;0,616090;0,615170;0,619904;0,619982;0,626481;0,628627;0,632815;0,635508;0,635884;0,638717;0,638497;0,645877;0,642477;0,645189;0,645372;0,650694;0,655838;0,655076;0,650413;0,650217;0,656885;0,662349;0,658645;0,663098;0,660751;0,654387;0,652874;0,657751;0,655928;0,654688;0,651338;0,656513;0,654810;0,650809;0,646987;0,649196;0,642240;0,640619;0,638367;0,635600;0,635985;0,627744;0,629048;0,622808;0,619444;0,615035;0,609405;0,608376;0,608841;0,604154;0,595477;0,589539;0,582213;0,585550;0,578777;0,582850;0,576438;0,571745;0,562236;0,562921;0,555276;0,553963;0,557287;0,546960;0,543003;0,544998;0,535150;0,540478
0,558518;0,559375;0,565668;0,568027;0,574088;0,576434;0,580256;0,585490;0,591078;0,594550;0,596566;0,603215;0,610603;0,616686;0,616718;0,622031;0,629771;0,633327;0,640968;0,645936;0,647455;0,654707;0,657445;0,664796;0,669851;0,678990;0,680327;0,683062;0,690881;0,691547;0,693821;0,696646;0,695815;0,708962;0,704315;0,714015;0,713903;0,714973;0,716857;0,718028;0,720174;0,721505;0,731065;0,723543;0,729188;0,723183;0,725655;0,729713;0,726630;0,721542;0,719531;0,722149;0,720318;0,716802;0,718774;0,721169;0,717509;0,712030;0,710491;0,710741;0,707224;0,701723;0,699390;0,699736;0,698700;0,692607;0,688962;0,691059;0,687431;0,681309;0,678723;0,683819;0,677673;0,674614;0,671719;0,669235;0,669521;0,669340;0,666050;0,666311;0,657546;0,658971;0,658607;0,654792;0,657587;0,651239;0,648707;0,646260;0,651200;0,646888;0,651183;0,640613;0,645587;0,645151;0,644233;0,645886;0,647366;0,643928;0,643930;0,640072;0,640375;0,641215;0,643031;0,640558;0,642105;0,645612;0,640311;0,644440;0,638844;0,648314;0,644845;0,637792;0,644087;0,641020;0,641851;0,647098;0,644481;0,643324;0,648119;0,648175;0,651426;0,654887;0,649666;0,655706;0,650068;0,650457;0,658977;0,652925;0,654093;0,655879;0,657329;0,656695;0,658635;0,657265;0,656721;0,661031;0,659819;0,665286;0,659863;0,663833;0,661549;0,666525;0,663713;0,662271;0,669153;0,668701;0,662243;0,666840;0,664415;0,658816;0,668286;0,662265;0,660799;0,661078;0,659098;0,656907;0,660385;0,658473;0,657408;0,654851;0,648344;0,650434;0,648501;0,644817;0,644768;0,640458;0,641044;0,636435;0,632612;0,630386;0,627877;0,624055;0,623922;0,614121;0,615604;0,608278;0,607475;0,604769;0,601653;0,598376;0,591684;0,589862;0,586908;0,580231;0,580306;0,574901;0,574942;0,570773;0,568510;0,561443;0,554966;0,557840;0,553089;0,554496;0,547422;0,539421;0,541722;0,536634;0,535564;0,535284
0,526702;0,531106;0,534528;0,535998;0,538041;0,536697;0,538184;0,541640;0,550899;0,552498;0,548348;0,555407;0,561068;0,559609;0,564079;0,568901;0,568730;0,571219;0,577833;0,579666;0,583219;0,587991;0,590496;0,590095;0,598068;0,600481;0,604709;0,608922;0,611020;0,616537;0,622629;0,620888;0,629076;0,636947;0,636017;0,644429;0,647010;0,651933;0,658715;0,663194;0,660733;0,672360;0,672350;0,673899;0,681927;0,686722;0,692416;0,693098;0,698837;0,703000;0,705420;0,713326;0,713923;0,718906;0,724325;0,726720;0,736872;0,738157;0,735318;0,743489;0,746559;0,750899;0,748756;0,758311;0,763778;0,760823;0,763356;0,772229;0,773965;0,770922;0,782353;0,778188;0,785573;0,775507;0,780153;0,783043;0,780637;0,786691;0,779312;0,779514;0,782845;0,778849;0,781164;0,781207;0,773800;0,769815;0,769429;0,771311;0,767162;0,762274;0,757223;0,758156;0,754785;0,755823;0,746870;0,742826;0,740615;0,741148;0,736246;0,729574;0,724836;0,718915;0,712603;0,715877;0,707660;0,700688;0,697818;0,697289;0,691770;0,682935;0,683797;0,678095;0,678511;0,671941;0,672531;0,665115;0,665708;0,661327;0,658311;0,649284;0,648615;0,649626;0,653031;0,647019;0,645058;0,643825;0,640204;0,639572;0,638739;0,637612;0,635051;0,639052;0,631169;0,628550;0,632818;0,634154;0,631517;0,633466;0,633186;0,632920;0,632873;0,630371;0,635424;0,633689;0,634580;0,631946;0,632867;0,631557;0,629569;0,632969;0,633663;0,625656;0,628287;0,627016;0,626602;0,623859;0,626705;0,628604;0,625844;0,622975;0,620394;0,621194;0,616641;0,619591;0,618196;0,614757;0,612499;0,604551;0,610082;0,607484;0,605224;0,598348;0,599743;0,592794;0,591363;0,592340;0,590312;0,583920;0,583518;0,580994;0,573869;0,578531;0,569301;0,570481;0,568770;0,564003;0,558112;0,558975;0,552657;0,554852;0,550273;0,548334;0,546635;0,544301;0,538518;0,531984;0,537725;0,538487;0,529534;0,531663
0,514804;0,515298;0,519970;0,517425;0,522230;0,526414;0,521942;0,528956;0,529494;0,529638;0,533659;0,531043;0,531684;0,542290;0,538994;0,539230;0,545267;0,542906;0,548090;0,546791;0,554265;0,556119;0,561357;0,557454;0,563366;0,565020;0,567401;0,564534;0,567709;0,573881;0,572361;0,582213;0,582135;0,582556;0,586043;0,587032;0,586020;0,587649;0,599488;0,600177;0,602109;0,603805;0,608289;0,610820;0,608808;0,614450;0,619279;0,622424;0,619173;0,622130;0,629595;0,631748;0,635819;0,641097;0,644108;0,644893;0,647902;0,649298;0,651347;0,660464;0,658648;0,663915;0,663380;0,667747;0,667797;0,670717;0,680353;0,687156;0,685765;0,689886;0,691536;0,693751;0,698843;0,697630;0,701921;0,706411;0,714146;0,716158;0,720942;0,721102;0,720471;0,730800;0,728336;0,731126;0,738329;0,741148;0,743354;0,744302;0,747492;0,752384;0,756164;0,755334;0,762556;0,763728;0,766029;0,764040;0,766096;0,771502;0,775836;0,775611;0,777023;0,779392;0,781280;0,785531;0,786040;0,788702;0,788754;0,790550;0,793531;0,787424;0,792165;0,794391;0,794879;0,792633;0,789760;0,790414;0,798164;0,790321;0,791165;0,791099;0,780790;0,784695;0,785786;0,782771;0,780873;0,778887;0,777249;0,772680;0,774574;0,764342;0,758044;0,758055;0,757080;0,751104;0,745976;0,743855;0,739065;0,732729;0,730735;0,726878;0,717877;0,716431;0,710132;0,703714;0,699949;0,697635;0,690104;0,687341;0,682616;0,674205;0,677973;0,666892;0,662475;0,659174;0,655466;0,651755;0,647849;0,639076;0,639528;0,633788;0,626920;0,629273;0,623311;0,616260;0,614318;0,606636;0,607928;0,602749;0,595467;0,594741;0,589289;0,591963;0,581391;0,581126;0,574050;0,577382;0,572110;0,566506;0,563538;0,563009;0,556338;0,557934;0,555793;0,552647;0,547175;0,547050;0,543744;0,542470;0,537485;0,536499;0,538433;0,534296;0,525030;0,529154;0,523563;0,526813;0,525232;0,521241;0,518077;0,517851
0,530103;0,534044;0,533720;0,530787;0,530592;0,541574;0,533553;0,539821;0,545833;0,548988;0,549841;0,552428;0,555467;0,554342;0,562383;0,561044;0,564224;0,568497;0,569380;0,572592;0,576611;0,578878;0,580899;0,582119;0,585275;0,590664;0,589837;0,588900;0,593946;0,595900;0,600722;0,603098;0,601180;0,601630;0,607537;0,603100;0,609048;0,607399;0,609204;0,614474;0,617378;0,612545;0,618554;0,618856;0,620141;0,614736;0,623986;0,621759;0,620650;0,621961;0,620227;0,621097;0,623427;0,626615;0,618301;0,619935;0,622886;0,620443;0,615369;0,620992;0,616849;0,620676;0,620588;0,617834;0,621186;0,622410;0,618951;0,616286;0,621199;0,622049;0,622792;0,621614;0,619167;0,624112;0,627343;0,620006;0,620725;0,628183;0,627786;0,626534;0,623013;0,624784;0,632725;0,633300;0,630629;0,630889;0,639528;0,641183;0,644175;0,644453;0,647747;0,646322;0,654594;0,652138;0,661841;0,663141;0,665276;0,669308;0,672250;0,674534;0,675918;0,678869;0,685667;0,684110;0,685433;0,694022;0,693962;0,692994;0,697205;0,700895;0,701580;0,711893;0,708298;0,712012;0,715880;0,720098;0,721997;0,724388;0,727831;0,731818;0,733955;0,734411;0,731596;0,738482;0,739676;0,740595;0,739086;0,741496;0,746180;0,744383;0,750289;0,747473;0,747676;0,752479;0,751630;0,752288;0,751888;0,753348;0,753600;0,759214;0,754611;0,747021;0,758313;0,752594;0,750979;0,752606;0,752340;0,746395;0,751694;0,747147;0,741763;0,746672;0,743144;0,740621;0,744057;0,735691;0,730460;0,731495;0,726933;0,727465;0,726119;0,723035;0,716830;0,715158;0,707353;0,706427;0,702631;0,699509;0,695749;0,686936;0,680316;0,679850;0,673897;0,668277;0,668402;0,661985;0,654680;0,650971;0,643211;0,637133;0,633817;0,632185;0,626040;0,622155;0,612524;0,612129;0,599906;0,596298;0,593888;0,590178;0,585813;0,581835;0,573708;0,569814;0,564137;0,559989;0,554207;0,558525;0,551425;0,550589
0,559732;0,569093;0,574676;0,579161;0,581035;0,589960;0,591320;0,599577;0,604125;0,610164;0,615748;0,624311;0,623495;0,634517;0,638862;0,644142;0,651395;0,656400;0,658699;0,663516;0,674203;0,680664;0,677989;0,683705;0,693035;0,702515;0,706055;0,714751;0,718849;0,717660;0,724766;0,728352;0,727339;0,737779;0,737332;0,741343;0,745465;0,746721;0,748396;0,749174;0,747979;0,749462;0,753295;0,756424;0,750041;0,755115;0,753928;0,750029;0,747657;0,748136;0,750971;0,743762;0,739599;0,737702;0,732548;0,731944;0,735747;0,726310;0,726498;0,720339;0,715145;0,713778;0,715983;0,706197;0,702890;0,700287;0,695230;0,694758;0,693026;0,684658;0,680142;0,679229;0,673367;0,673446;0,674489;0,667540;0,662710;0,665105;0,662066;0,657013;0,655736;0,653270;0,648703;0,648819;0,646947;0,649572;0,641773;0,648145;0,644290;0,638813;0,637768;0,638569;0,636619;0,633269;0,635247;0,636095;0,634134;0,633188;0,635230;0,635675;0,636875;0,632948;0,634316;0,639706;0,633942;0,634909;0,635086;0,640391;0,636042;0,637889;0,642011;0,639199;0,637852;0,639757;0,641531;0,638275;0,639813;0,642894;0,639619;0,643932;0,639735;0,644721;0,647674;0,645442;0,644734;0,646797;0,645235;0,642519;0,645784;0,649646;0,646182;0,639462;0,645410;0,647657;0,646882;0,646072;0,647031;0,647396;0,649059;0,651195;0,647528;0,641868;0,647622;0,645165;0,647648;0,641139;0,648977;0,642915;0,639675;0,640440;0,642464;0,638531;0,638544;0,639202;0,633002;0,636688;0,633813;0,630784;0,631668;0,627044;0,621862;0,622717;0,623797;0,617120;0,620001;0,614815;0,613636;0,608735;0,608545;0,607177;0,601252;0,599884;0,602668;0,598726;0,590628;0,586158;0,585704;0,580648;0,580553;0,572641;0,574564;0,569811;0,565986;0,565632;0,561575;0,557693;0,558777;0,551605;0,552518;0,543910;0,541655;0,543081;0,538339;0,538969;0,536786;0,528689;0,530067;0,527488;0,528262;0,520184
0,526053;0,532840;0,530796;0,535293;0,536444;0,542207;0,542036;0,542987;0,548438;0,547377;0,551386;0,555329;0,556454;0,560188;0,560458;0,564374;0,568976;0,567382;0,577694;0,578146;0,577135;0,577898;0,580231;0,586287;0,589102;0,590747;0,593997;0,597605;0,604143;0,599943;0,606933;0,611671;0,609144;0,617478;0,618779;0,621202;0,619673;0,622355;0,619741;0,624410;0,626379;0,632414;0,630825;0,628898;0,638326;0,634287;0,635730;0,633189;0,639801;0,635742;0,639033;0,636913;0,640381;0,641179;0,641008;0,638248;0,641671;0,643867;0,642321;0,644911;0,641194;0,639607;0,643081;0,637750;0,638660;0,644000;0,640232;0,638281;0,643458;0,634826;0,636695;0,638965;0,638530;0,638506;0,639105;0,635283;0,633336;0,632564;0,627663;0,630696;0,633004;0,632334;0,632900;0,631356;0,631959;0,633815;0,630433;0,628981;0,629608;0,626995;0,629215;0,623667;0,629534;0,622624;0,625220;0,620092;0,622673;0,627740;0,625535;0,626628;0,625930;0,626800;0,626892;0,625005;0,626143;0,624613;0,625248;0,627422;0,630604;0,633553;0,628376;0,628227;0,632738;0,633333;0,637243;0,637858;0,641086;0,644613;0,650943;0,650807;0,651259;0,657227;0,656967;0,660306;0,669416;0,669679;0,675909;0,682760;0,682250;0,691259;0,692617;0,700173;0,701223;0,704191;0,709705;0,718734;0,718103;0,723179;0,730067;0,734521;0,739653;0,739682;0,747581;0,751207;0,754602;0,762761;0,761691;0,760462;0,767201;0,770068;0,769047;0,776417;0,782145;0,776040;0,779540;0,778982;0,775753;0,781951;0,779576;0,778341;0,781240;0,774575;0,777241;0,775730;0,770669;0,763534;0,765810;0,761969;0,756956;0,748191;0,744961;0,739013;0,737765;0,734882;0,729605;0,725829;0,720331;0,709715;0,702830;0,698547;0,687012;0,683434;0,685312;0,665437;0,662110;0,658229;0,650806;0,642031;0,635684;0,630014;0,629449;0,618475;0,616231;0,613583;0,604579;0,603060;0,589882;0,587424;0,585521;0,579347
0,528441;0,531446;0,526426;0,529400;0,530086;0,535277;0,537521;0,537607;0,540340;0,544114;0,549672;0,544113;0,549215;0,556638;0,557185;0,559048;0,560241;0,566746;0,566089;0,577993;0,583816;0,578071;0,582972;0,585791;0,588518;0,598042;0,596730;0,602506;0,605946;0,609750;0,612567;0,618238;0,622303;0,630017;0,628616;0,631796;0,638494;0,643037;0,650834;0,656174;0,661267;0,664285;0,667053;0,671381;0,680738;0,679831;0,687890;0,690786;0,698545;0,707565;0,706290;0,713500;0,714472;0,721934;0,726714;0,730430;0,733048;0,739400;0,749692;0,751813;0,755062;0,758942;0,763483;0,765820;0,769124;0,777096;0,782349;0,784477;0,785062;0,792260;0,788421;0,793745;0,790182;0,795714;0,804276;0,808734;0,800972;0,805476;0,807484;0,804666;0,807167;0,808823;0,808952;0,804201;0,806089;0,806113;0,806905;0,802557;0,800582;0,804215;0,803618;0,798125;0,787283;0,790218;0,789764;0,787097;0,782920;0,774874;0,774464;0,772664;0,765106;0,760933;0,764284;0,756068;0,752602;0,748361;0,744879;0,736651;0,735381;0,728982;0,727680;0,724006;0,718570;0,717710;0,711016;0,707402;0,705652;0,701287;0,695985;0,693251;0,691426;0,689574;0,684337;0,677936;0,675354;0,677208;0,672969;0,667719;0,667671;0,662221;0,661426;0,656939;0,655867;0,653923;0,646285;0,647191;0,647060;0,644581;0,639227;0,638388;0,638597;0,634486;0,629460;0,625432;0,626944;0,625526;0,620798;0,622391;0,616752;0,615892;0,615989;0,611170;0,610318;0,610404;0,604183;0,603840;0,603730;0,597799;0,600880;0,597784;0,598374;0,592118;0,588666;0,583928;0,589261;0,584588;0,583599;0,584419;0,577486;0,575601;0,575098;0,573668;0,567248;0,567155;0,565076;0,564070;0,563065;0,559463;0,561748;0,556478;0,554286;0,550102;0,551748;0,549550;0,548285;0,545547;0,542242;0,544024;0,543394;0,535827;0,537892;0,534889;0,536594;0,535373;0,531567;0,527801;0,528528;0,522839;0,526553;0,523900
0,574400;0,581803;0,588401;0,588697;0,598289;0,607285;0,609418;0,613328;0,616716;0,626134;0,633939;0,640066;0,650203;0,653488;0,661904;0,670817;0,676067;0,691006;0,693762;0,698374;0,702477;0,708880;0,719211;0,723847;0,731944;0,742501;0,743757;0,755566;0,760789;0,767223;0,770664;0,778254;0,780162;0,784188;0,789191;0,791931;0,796619;0,803205;0,811837;0,809351;0,813634;0,809990;0,815860;0,817633;0,818157;0,818649;0,823797;0,821611;0,820015;0,820197;0,822682;0,818769;0,819456;0,821345;0,817520;0,821616;0,816655;0,815543;0,811229;0,808235;0,806132;0,799886;0,802819;0,801188;0,795774;0,795630;0,789441;0,782973;0,775421;0,778056;0,775572;0,770084;0,765971;0,766114;0,758380;0,759096;0,753541;0,747954;0,746716;0,741696;0,739222;0,732169;0,726276;0,725059;0,717393;0,717210;0,713073;0,714756;0,705229;0,705194;0,694611;0,689548;0,692501;0,688124;0,680601;0,676008;0,674941;0,666668;0,665227;0,662473;0,661186;0,655058;0,653859;0,649325;0,650565;0,642022;0,646474;0,635268;0,634947;0,627562;0,627032;0,627015;0,625409;0,616760;0,618195;0,608854;0,611318;0,607592;0,609325;0,600844;0,600985;0,597973;0,599308;0,596016;0,596582;0,589246;0,585956;0,586420;0,584499;0,586697;0,583815;0,575854;0,579326;0,580643;0,579419;0,576984;0,571508;0,577774;0,570790;0,570598;0,565945;0,566361;0,559852;0,564338;0,565496;0,567690;0,560081;0,564733;0,562876;0,562672;0,557452;0,557093;0,559464;0,555873;0,555554;0,551737;0,554346;0,552549;0,550974;0,548262;0,547700;0,547227;0,546709;0,546343;0,545651;0,542744;0,539025;0,540922;0,534892;0,540666;0,540219;0,532512;0,538935;0,534323;0,532606;0,532033;0,529616;0,532560;0,531011;0,531141;0,527582;0,525256;0,526424;0,521633;0,523599;0,525371;0,524976;0,521716;0,522513;0,520395;0,518762;0,518176;0,517518;0,517724;0,517300;0,513443;0,516978;0,509355;0,511706;0,514948
0,523464;0,525755;0,527103;0,529211;0,531622;0,536941;0,533862;0,538254;0,542350;0,541959;0,546813;0,548299;0,551617;0,554907;0,559348;0,557440;0,563462;0,569033;0,564561;0,572713;0,576426;0,577545;0,580733;0,580619;0,584197;0,588194;0,590878;0,595188;0,595786;0,600343;0,609332;0,608749;0,611722;0,612605;0,617697;0,621873;0,625736;0,620796;0,631106;0,636300;0,639341;0,642152;0,645922;0,644375;0,650885;0,655403;0,657402;0,663345;0,662465;0,670224;0,668264;0,675563;0,676988;0,679866;0,682663;0,683475;0,683852;0,688737;0,690908;0,688685;0,697663;0,701367;0,701392;0,702360;0,704457;0,710368;0,709403;0,705655;0,707022;0,709479;0,714122;0,710752;0,714601;0,709934;0,712717;0,713704;0,712482;0,709660;0,715906;0,708780;0,711517;0,706242;0,707999;0,704415;0,701217;0,700045;0,695284;0,695019;0,691411;0,692943;0,688106;0,681455;0,678265;0,677591;0,672702;0,671649;0,663766;0,662207;0,658045;0,659115;0,654488;0,651433;0,644134;0,646335;0,639942;0,636502;0,630339;0,632658;0,631222;0,622910;0,619383;0,618384;0,615391;0,618773;0,616046;0,619487;0,622184;0,618761;0,616383;0,618772;0,619134;0,624313;0,617435;0,622980;0,624947;0,627064;0,631675;0,633432;0,633574;0,639370;0,639940;0,645471;0,644568;0,650978;0,658923;0,654778;0,664001;0,664395;0,673456;0,677969;0,678560;0,683641;0,691857;0,691602;0,694556;0,700580;0,701741;0,702273;0,705212;0,712196;0,717038;0,716245;0,713568;0,718524;0,727326;0,722618;0,725899;0,723374;0,730928;0,728429;0,727190;0,726983;0,728530;0,721770;0,720869;0,716364;0,719530;0,718386;0,715042;0,708874;0,701550;0,700884;0,699919;0,695747;0,690186;0,684689;0,673752;0,675301;0,668861;0,664289;0,661002;0,655678;0,649410;0,634275;0,637650;0,629421;0,625386;0,620963;0,609223;0,607630;0,604302;0,603749;0,596355;0,589591;0,584541;0,577313;0,576112;0,567455;0,564553;0,562876
0,515797;0,515103;0,512438;0,517615;0,521516;0,521018;0,520136;0,522119;0,520150;0,521773;0,522415;0,522423;0,527957;0,528538;0,529827;0,532261;0,531583;0,535552;0,541161;0,531399;0,537615;0,540924;0,534945;0,543682;0,543748;0,546363;0,545838;0,546225;0,550131;0,550546;0,551660;0,555121;0,550330;0,557186;0,563292;0,558006;0,559911;0,561318;0,565452;0,565450;0,562669;0,564659;0,566633;0,571079;0,568008;0,571329;0,572366;0,574361;0,576593;0,577794;0,576110;0,578667;0,582447;0,587324;0,585237;0,590393;0,592317;0,593074;0,592673;0,592684;0,597720;0,597026;0,601397;0,607050;0,605973;0,611564;0,611570;0,620458;0,620886;0,619536;0,627575;0,634202;0,636972;0,639978;0,643116;0,646159;0,655360;0,662614;0,664417;0,667703;0,674744;0,677176;0,684780;0,687001;0,695113;0,705979;0,711507;0,716322;0,725645;0,732158;0,740347;0,747245;0,748893;0,761526;0,772851;0,779175;0,773955;0,790670;0,795048;0,803950;0,811213;0,811812;0,823327;0,826516;0,837357;0,843845;0,848214;0,854078;0,854198;0,859378;0,866583;0,869032;0,875574;0,876870;0,877957;0,884081;0,881708;0,884178;0,882941;0,882178;0,880736;0,882455;0,880535;0,878867;0,874546;0,868815;0,867149;0,857823;0,862431;0,853795;0,851783;0,845258;0,841143;0,833961;0,824287;0,816256;0,809729;0,802073;0,799522;0,792101;0,777079;0,773461;0,762503;0,758843;0,749601;0,740160;0,731789;0,719545;0,712515;0,702790;0,703986;0,692582;0,683755;0,675240;0,666802;0,663176;0,649939;0,649231;0,643272;0,629191;0,627089;0,623279;0,611846;0,612569;0,603256;0,597914;0,594967;0,590706;0,584566;0,577300;0,574937;0,572596;0,569985;0,565620;0,557036;0,557979;0,551836;0,547665;0,546414;0,542367;0,537699;0,541378;0,536902;0,535239;0,527548;0,525713;0,526864;0,521314;0,519966;0,518049;0,519538;0,520630;0,514367;0,517848;0,509179;0,512126;0,506381;0,509344;0,510851;0,506485
0,526583;0,520644;0,525714;0,524150;0,534653;0,531215;0,531233;0,539388;0,540282;0,540698;0,542023;0,544330;0,549020;0,553891;0,556155;0,555911;0,553074;0,565429;0,564575;0,566092;0,570792;0,578889;0,575759;0,584000;0,588709;0,589164;0,589656;0,589650;0,594573;0,606177;0,606810;0,609276;0,612209;0,615796;0,622872;0,622613;0,630335;0,636441;0,636246;0,643071;0,644369;0,650554;0,649592;0,655235;0,658919;0,666598;0,668599;0,676155;0,675935;0,685465;0,686329;0,689816;0,694964;0,698786;0,701260;0,708857;0,709908;0,716450;0,720570;0,726900;0,730027;0,731744;0,735131;0,737304;0,742130;0,746917;0,750149;0,755191;0,754616;0,754063;0,756967;0,762574;0,764070;0,762584;0,764469;0,768182;0,768215;0,772438;0,766137;0,773766;0,770023;0,770892;0,775036;0,774779;0,773801;0,771095;0,772997;0,768983;0,763551;0,760901;0,764375;0,754851;0,758618;0,755965;0,753172;0,747783;0,744909;0,747932;0,744689;0,734669;0,737018;0,732108;0,723010;0,724025;0,724895;0,718323;0,717763;0,710209;0,708122;0,703207;0,704558;0,700671;0,694642;0,697216;0,695424;0,688367;0,686475;0,682626;0,675602;0,679409;0,677978;0,674725;0,674271;0,671184;0,673759;0,670124;0,662695;0,662959;0,661352;0,661778;0,660578;0,655902;0,655365;0,651454;0,651339;0,660595;0,645347;0,654814;0,648727;0,648159;0,648580;0,646448;0,646790;0,641697;0,644704;0,644714;0,641011;0,647589;0,642705;0,642378;0,639980;0,635016;0,635976;0,634163;0,634161;0,633692;0,631445;0,628369;0,623879;0,626695;0,623909;0,622947;0,624648;0,618057;0,614851;0,609993;0,608611;0,611830;0,607644;0,602048;0,602386;0,598339;0,596075;0,588809;0,591791;0,588930;0,582580;0,585024;0,584436;0,574178;0,569250;0,572452;0,564748;0,563951;0,564114;0,556401;0,556764;0,553266;0,552469;0,545776;0,547226;0,540504;0,537989;0,537816;0,536726;0,527158;0,535030;0,526784;0,526980;0,524672
0,515383;0,522999;0,519224;0,520009;0,524578;0,525641;0,525335;0,522924;0,529680;0,528292;0,530466;0,532506;0,534001;0,536404;0,535929;0,535964;0,539376;0,546103;0,546681;0,546637;0,545271;0,551739;0,550266;0,547763;0,552191;0,556528;0,556778;0,557743;0,558998;0,564576;0,566041;0,565938;0,567876;0,562183;0,569970;0,567921;0,573976;0,573029;0,570011;0,578573;0,574236;0,578288;0,578750;0,575933;0,577287;0,581961;0,575205;0,584422;0,579516;0,583074;0,582934;0,587644;0,581155;0,583960;0,583987;0,590726;0,585890;0,588626;0,584042;0,590162;0,586913;0,591137;0,590871;0,591215;0,592735;0,591908;0,588311;0,593591;0,595905;0,594380;0,595175;0,595445;0,596916;0,597515;0,602859;0,599216;0,606275;0,608220;0,608279;0,607152;0,611849;0,613407;0,610984;0,618228;0,620502;0,622343;0,626024;0,630626;0,623947;0,638996;0,637276;0,640824;0,638596;0,646521;0,651875;0,654137;0,654208;0,656389;0,667697;0,665996;0,669994;0,670131;0,672710;0,679603;0,680793;0,691142;0,691375;0,694490;0,698054;0,701706;0,708361;0,704611;0,712558;0,715213;0,718648;0,721412;0,724243;0,728870;0,731918;0,738644;0,734090;0,741208;0,741686;0,744364;0,748723;0,755630;0,750836;0,751990;0,758394;0,759209;0,765768;0,766193;0,765515;0,772939;0,773681;0,776994;0,776210;0,772859;0,781042;0,781499;0,781582;0,780812;0,786999;0,785945;0,783297;0,789066;0,782477;0,785336;0,786386;0,785976;0,783613;0,781346;0,785950;0,780319;0,774633;0,779778;0,771966;0,771500;0,771724;0,769179;0,760590;0,758074;0,759107;0,751375;0,751290;0,749433;0,745983;0,732190;0,732565;0,728771;0,722303;0,712866;0,716244;0,706828;0,694711;0,694702;0,690863;0,677081;0,672907;0,667461;0,662194;0,651001;0,646844;0,645012;0,637198;0,630752;0,631437;0,620768;0,613079;0,608113;0,600282;0,596886;0,595018;0,586334;0,583186;0,579615;0,577519;0,565002;0,561211;0,554656
0,522198;0,522114;0,521195;0,517074;0,523983;0,524272;0,528585;0,525837;0,524749;0,534237;0,530511;0,533964;0,538345;0,542908;0,539094;0,542586;0,544911;0,546820;0,548129;0,548732;0,555881;0,551885;0,557752;0,556230;0,559721;0,559571;0,561949;0,564657;0,564929;0,570243;0,569826;0,568483;0,571101;0,573672;0,575070;0,581923;0,580695;0,582134;0,581321;0,582224;0,585943;0,588764;0,584800;0,592162;0,588280;0,593022;0,586797;0,592674;0,594818;0,596753;0,597806;0,596066;0,593520;0,597914;0,601829;0,601693;0,600492;0,604938;0,605694;0,606222;0,612245;0,613795;0,611959;0,615061;0,610307;0,618397;0,619355;0,619838;0,621694;0,623851;0,624880;0,631721;0,630044;0,635328;0,637898;0,640494;0,650814;0,653437;0,652600;0,655835;0,662213;0,661393;0,664395;0,668891;0,673649;0,679254;0,680766;0,690200;0,695835;0,700805;0,704535;0,713519;0,719490;0,719707;0,730194;0,736433;0,736936;0,744844;0,750765;0,754963;0,761802;0,765557;0,771055;0,774458;0,777868;0,785931;0,784689;0,790846;0,794727;0,802295;0,807739;0,809147;0,808249;0,817792;0,816601;0,816351;0,818712;0,824842;0,819922;0,820250;0,825517;0,826070;0,822133;0,822609;0,817641;0,824536;0,819845;0,815820;0,818558;0,814422;0,815093;0,810444;0,801772;0,802850;0,796444;0,791505;0,790547;0,785101;0,782685;0,779847;0,771972;0,763229;0,761598;0,754617;0,749385;0,746676;0,740085;0,733990;0,732614;0,725073;0,721246;0,715022;0,709813;0,704959;0,700235;0,698488;0,687840;0,683536;0,679760;0,674617;0,672130;0,665299;0,654878;0,656441;0,646802;0,645961;0,638934;0,634557;0,629716;0,623105;0,624120;0,614822;0,612130;0,606773;0,608550;0,600548;0,596155;0,594802;0,589945;0,578270;0,578543;0,572442;0,576814;0,567587;0,569017;0,565516;0,560389;0,559389;0,553217;0,551785;0,548518;0,544486;0,545694;0,539031;0,543970;0,534221;0,532364;0,533657;0,529540;0,528350
0,511924;0,514320;0,515866;0,513846;0,515530;0,516277;0,518443;0,517610;0,519285;0,520425;0,517903;0,523462;0,523988;0,526601;0,527762;0,527620;0,531885;0,528980;0,534680;0,526663;0,531359;0,532242;0,532470;0,540107;0,538668;0,540692;0,538857;0,536633;0,536897;0,537348;0,541360;0,542289;0,542155;0,548620;0,542009;0,548078;0,549738;0,545035;0,544979;0,547276;0,548186;0,545633;0,542718;0,550578;0,551284;0,549548;0,546736;0,547503;0,544186;0,548319;0,546224;0,548091;0,548878;0,546835;0,551978;0,546990;0,547105;0,549903;0,551161;0,547300;0,548782;0,552373;0,554367;0,550052;0,553577;0,551584;0,552821;0,551501;0,560230;0,557734;0,559154;0,563802;0,561587;0,569097;0,566371;0,571970;0,570023;0,575920;0,576993;0,574589;0,585109;0,588284;0,591596;0,596662;0,601704;0,603748;0,609917;0,612886;0,620087;0,618490;0,626325;0,633210;0,639231;0,646431;0,648909;0,653577;0,659046;0,668091;0,667812;0,677130;0,684674;0,690226;0,692339;0,701366;0,711196;0,711331;0,717840;0,722570;0,730632;0,736523;0,741472;0,745549;0,750762;0,760519;0,760177;0,763433;0,769393;0,778902;0,780365;0,787120;0,785973;0,795601;0,794482;0,797805;0,799706;0,799180;0,806033;0,807040;0,811006;0,811111;0,819189;0,811343;0,822136;0,819277;0,819254;0,820669;0,820355;0,821483;0,824465;0,827405;0,820270;0,821890;0,822451;0,824446;0,819998;0,822701;0,823545;0,817018;0,817437;0,815584;0,811512;0,811686;0,807665;0,809904;0,805328;0,803522;0,796603;0,794510;0,791432;0,792213;0,784373;0,782888;0,776110;0,773809;0,761281;0,760119;0,759703;0,749502;0,746253;0,735687;0,730602;0,729084;0,718136;0,714253;0,710320;0,700010;0,693280;0,687249;0,684706;0,671492;0,669444;0,664885;0,652289;0,651617;0,644815;0,639925;0,631351;0,624312;0,619845;0,612041;0,607203;0,599168;0,596773;0,590354;0,582398;0,578668;0,581535;0,569873;0,565440;0,566241
0,545312;0,549343;0,552592;0,553881;0,561702;0,560837;0,564403;0,568574;0,569594;0,572726;0,583714;0,582410;0,585115;0,589086;0,592021;0,602146;0,598308;0,600143;0,609750;0,611353;0,618193;0,618818;0,624979;0,631921;0,633881;0,635360;0,635802;0,635462;0,646610;0,641022;0,647897;0,650493;0,650175;0,656022;0,655330;0,657234;0,660465;0,658538;0,661207;0,662855;0,659382;0,663747;0,662034;0,654911;0,658112;0,656013;0,653878;0,653732;0,647494;0,650321;0,648362;0,643620;0,645480;0,636667;0,639411;0,637323;0,627667;0,629642;0,621829;0,625514;0,616539;0,610001;0,612030;0,606507;0,604529;0,599595;0,594505;0,596660;0,587503;0,582918;0,584544;0,576989;0,576934;0,572459;0,570316;0,563828;0,563794;0,566245;0,562448;0,553297;0,555871;0,554594;0,553047;0,552663;0,551713;0,546246;0,550792;0,543287;0,540269;0,548340;0,548925;0,551159;0,552121;0,546409;0,544870;0,550149;0,552545;0,546941;0,557995;0,549521;0,552910;0,557718;0,561737;0,564554;0,563704;0,566252;0,568248;0,571828;0,576850;0,579376;0,582853;0,587325;0,592487;0,593482;0,602670;0,601292;0,609490;0,611420;0,617679;0,624859;0,627290;0,632427;0,639438;0,646465;0,648271;0,653945;0,661534;0,667215;0,675596;0,678518;0,681533;0,686647;0,700040;0,702228;0,708605;0,718213;0,724279;0,731440;0,737212;0,742687;0,745086;0,752225;0,759330;0,766914;0,765611;0,768526;0,778088;0,780948;0,787599;0,787077;0,790290;0,792746;0,798040;0,800056;0,800930;0,797399;0,805620;0,801524;0,803393;0,804478;0,798971;0,797039;0,799133;0,797953;0,792834;0,789730;0,785037;0,785154;0,775106;0,781500;0,769626;0,761289;0,759563;0,753499;0,743528;0,738210;0,736786;0,730037;0,721223;0,710772;0,708306;0,697762;0,687964;0,682468;0,678033;0,666407;0,660079;0,653394;0,647420;0,639565;0,631971;0,628411;0,619460;0,614417;0,603835;0,603325;0,591280;0,586210;0,583091;0,572702
0,538618;0,544120;0,543824;0,552631;0,552449;0,555028;0,562173;0,559829;0,565104;0,565434;0,570941;0,575287;0,576537;0,582508;0,582992;0,587935;0,595206;0,601496;0,607024;0,610529;0,613582;0,616492;0,617786;0,625886;0,628990;0,633309;0,632204;0,644146;0,642663;0,646213;0,652198;0,655952;0,656619;0,664502;0,671183;0,667214;0,674598;0,675787;0,678337;0,681996;0,683168;0,686573;0,688783;0,693826;0,691961;0,696599;0,695079;0,701215;0,705887;0,710735;0,707360;0,708495;0,713597;0,710698;0,715934;0,710442;0,719686;0,720008;0,721814;0,723348;0,729297;0,728136;0,722340;0,724721;0,730311;0,733077;0,728629;0,733105;0,734781;0,736094;0,735094;0,737450;0,741308;0,740448;0,738000;0,745981;0,748459;0,750392;0,745662;0,748778;0,749038;0,750949;0,755737;0,754894;0,750375;0,758569;0,752668;0,758502;0,755377;0,768936;0,761195;0,765809;0,760787;0,768202;0,765062;0,766992;0,766132;0,769312;0,770617;0,767553;0,768976;0,772176;0,770763;0,770010;0,763463;0,773442;0,772143;0,767421;0,767468;0,765669;0,772322;0,761660;0,769463;0,764945;0,761869;0,760663;0,757422;0,754197;0,755593;0,750783;0,748560;0,751109;0,743400;0,738610;0,730095;0,734637;0,725262;0,723853;0,719190;0,713736;0,707105;0,708449;0,701320;0,695208;0,688845;0,684267;0,679298;0,673686;0,667777;0,669386;0,655736;0,656020;0,647067;0,641403;0,641316;0,628938;0,628439;0,620989;0,613977;0,607890;0,604409;0,602555;0,594876;0,591570;0,586468;0,583103;0,579800;0,571056;0,564884;0,567390;0,566594;0,561648;0,552026;0,553364;0,548444;0,543777;0,541117;0,540786;0,536827;0,533819;0,534368;0,530789;0,531034;0,530579;0,528824;0,525121;0,519417;0,522768;0,517295;0,518410;0,516759;0,517905;0,516085;0,514188;0,512082;0,510553;0,510717;0,509657;0,514960;0,512353;0,510478;0,509391;0,512339;0,506984;0,513911;0,504492;0,505570;0,506525;0,505065;0,508147
0,530180;0,532267;0,534392;0,529736;0,536806;0,537421;0,540457;0,542662;0,543970;0,546743;0,548840;0,557498;0,550467;0,560285;0,560600;0,563402;0,564182;0,571549;0,571137;0,579930;0,575910;0,580595;0,586478;0,584681;0,590551;0,591764;0,591276;0,594262;0,598179;0,601921;0,603792;0,607448;0,607834;0,612888;0,618831;0,617513;0,618994;0,617754;0,620065;0,623353;0,624047;0,622642;0,625204;0,625914;0,626795;0,629668;0,631557;0,631127;0,632778;0,632356;0,631523;0,632356;0,637324;0,636277;0,640451;0,638173;0,638854;0,639974;0,642938;0,637832;0,639219;0,645297;0,641875;0,639765;0,641886;0,646389;0,647126;0,642337;0,646281;0,652910;0,647980;0,649738;0,655493;0,656612;0,663485;0,658675;0,657131;0,664703;0,665849;0,668843;0,674483;0,675992;0,679926;0,685663;0,683998;0,692219;0,689317;0,700796;0,699688;0,703079;0,705875;0,713931;0,716639;0,722936;0,724913;0,727308;0,738131;0,739630;0,746055;0,746740;0,750504;0,755556;0,761339;0,763543;0,767145;0,769351;0,774708;0,776645;0,779116;0,777377;0,785252;0,794513;0,789409;0,794689;0,794103;0,794529;0,799433;0,796147;0,797503;0,794064;0,796553;0,795724;0,799109;0,796904;0,794191;0,787403;0,788946;0,782992;0,789919;0,780706;0,777884;0,771826;0,772713;0,768123;0,768461;0,758428;0,754420;0,755592;0,746892;0,745292;0,736595;0,733406;0,722726;0,722083;0,718189;0,708298;0,709958;0,702739;0,689810;0,685077;0,688309;0,683343;0,676753;0,667351;0,665624;0,655089;0,651408;0,649332;0,645708;0,640181;0,640525;0,631774;0,628952;0,622280;0,620160;0,615534;0,605625;0,606797;0,602890;0,596227;0,591105;0,587542;0,582878;0,583123;0,580470;0,577915;0,573968;0,571973;0,566967;0,559520;0,561798;0,553644;0,551271;0,554023;0,550345;0,549362;0,545396;0,537231;0,544127;0,531523;0,533415;0,530548;0,528796;0,530695;0,525933;0,526277;0,524321;0,517885;0,522627;0,522738
0,606153;0,614970;0,620642;0,628768;0,640213;0,646606;0,656550;0,660312;0,671234;0,679153;0,688924;0,695871;0,707451;0,719306;0,729337;0,736540;0,751023;0,761238;0,769438;0,783825;0,785626;0,794081;0,803330;0,816485;0,819490;0,827971;0,836712;0,841994;0,847608;0,856313;0,859601;0,867947;0,870597;0,879905;0,881224;0,886468;0,883085;0,891724;0,888721;0,897178;0,894643;0,895935;0,889152;0,892065;0,886567;0,886484;0,884480;0,879760;0,874050;0,872001;0,864999;0,861811;0,852437;0,844895;0,835658;0,829463;0,823873;0,815966;0,811704;0,800524;0,792407;0,780605;0,771624;0,763450;0,755563;0,746567;0,738688;0,731041;0,719406;0,710074;0,697591;0,690916;0,685593;0,674849;0,663199;0,659989;0,647905;0,646340;0,636637;0,636218;0,622952;0,618088;0,612891;0,605326;0,595976;0,597789;0,589679;0,586985;0,582927;0,580568;0,572011;0,571368;0,566681;0,565047;0,560330;0,552886;0,553605;0,552959;0,554659;0,555370;0,549933;0,548627;0,545354;0,546403;0,540952;0,542837;0,544218;0,543537;0,539170;0,543922;0,538339;0,545912;0,538521;0,544703;0,540047;0,542178;0,543489;0,541480;0,537581;0,548034;0,543036;0,548641;0,546524;0,551309;0,545745;0,550572;0,555049;0,555900;0,558000;0,554178;0,554482;0,559801;0,555354;0,558785;0,561759;0,559290;0,563550;0,567914;0,566730;0,568770;0,572269;0,570442;0,570567;0,567724;0,572488;0,576619;0,577597;0,576609;0,578269;0,576060;0,577496;0,574635;0,577524;0,579914;0,575414;0,576729;0,579780;0,578059;0,580616;0,583456;0,576567;0,581362;0,575856;0,577294;0,573412;0,573491;0,576198;0,572335;0,573553;0,568976;0,567893;0,566742;0,565718;0,564879;0,564209;0,563645;0,556682;0,557403;0,558533;0,551522;0,553613;0,545822;0,549031;0,543320;0,543633;0,544226;0,540538;0,533526;0,537452;0,536159;0,531299;0,527692;0,527855;0,525967;0,520790;0,523917;0,520756;0,524062;0,518092;0,518960
0,525058;0,525491;0,526402;0,528270;0,531903;0,531633;0,535914;0,541874;0,541082;0,545763;0,544950;0,549267;0,549933;0,555778;0,552140;0,557635;0,563137;0,561849;0,571665;0,569837;0,573813;0,572295;0,573246;0,571336;0,575697;0,582414;0,580631;0,586508;0,588262;0,587544;0,591224;0,591559;0,589677;0,595426;0,597853;0,602171;0,600726;0,598092;0,603117;0,600930;0,600627;0,601681;0,604585;0,606303;0,604268;0,605985;0,603263;0,604678;0,606017;0,598961;0,601485;0,603479;0,602989;0,605557;0,596779;0,601596;0,599471;0,599917;0,601620;0,599618;0,602176;0,598131;0,597974;0,600991;0,595869;0,594503;0,597003;0,596144;0,589806;0,593475;0,589197;0,594424;0,594023;0,593484;0,597366;0,596554;0,598333;0,596947;0,598379;0,596370;0,599415;0,602144;0,606425;0,604944;0,605016;0,609114;0,613009;0,610651;0,613141;0,622260;0,619900;0,619377;0,628862;0,627533;0,635278;0,637865;0,644503;0,643660;0,648525;0,650705;0,659032;0,656758;0,665131;0,664415;0,672195;0,674244;0,678995;0,678404;0,682590;0,696397;0,693088;0,698209;0,699584;0,707081;0,711654;0,712625;0,721385;0,720585;0,722623;0,726773;0,733721;0,729141;0,741745;0,742452;0,746440;0,746967;0,752467;0,754162;0,757663;0,756327;0,760308;0,761262;0,766958;0,770126;0,766641;0,775200;0,774436;0,776565;0,777810;0,781039;0,778107;0,778870;0,784112;0,782343;0,786191;0,785498;0,786264;0,790897;0,786051;0,790794;0,790487;0,785604;0,784201;0,783469;0,785397;0,783440;0,778929;0,777854;0,779623;0,774908;0,768393;0,766041;0,762206;0,757023;0,755777;0,750734;0,749984;0,741385;0,740042;0,730807;0,727012;0,723050;0,716661;0,708127;0,705449;0,697465;0,689907;0,688766;0,685158;0,676784;0,667730;0,659879;0,657237;0,650265;0,651084;0,643063;0,631990;0,631887;0,626361;0,619578;0,613111;0,607042;0,604020;0,594364;0,589089;0,583968;0,576214;0,574482;0,569684;0,565697
0,529875;0,528340;0,536550;0,538823;0,536809;0,533124;0,544151;0,544097;0,548009;0,551690;0,550672;0,556222;0,560905;0,566163;0,566195;0,567460;0,575891;0,577247;0,582386;0,589287;0,586389;0,593774;0,600578;0,604802;0,609324;0,616939;0,612740;0,617371;0,624436;0,630103;0,638165;0,640948;0,640455;0,646975;0,654851;0,656994;0,666437;0,669693;0,675852;0,681682;0,687378;0,697413;0,699284;0,708746;0,712659;0,713347;0,725929;0,729661;0,736698;0,742345;0,748622;0,756495;0,755800;0,766820;0,774233;0,787410;0,781532;0,790420;0,796723;0,802793;0,808176;0,809815;0,817168;0,818123;0,827428;0,832410;0,833616;0,840053;0,842659;0,841480;0,851086;0,853284;0,853419;0,858030;0,857635;0,862101;0,861976;0,856056;0,865855;0,861341;0,856097;0,859439;0,855233;0,857476;0,849526;0,846312;0,848608;0,845169;0,840913;0,837113;0,829377;0,825455;0,826376;0,817550;0,815308;0,810389;0,801213;0,797057;0,789274;0,786141;0,776449;0,771552;0,764655;0,761599;0,752431;0,742908;0,733750;0,732822;0,722096;0,712676;0,710623;0,704846;0,699947;0,695117;0,687744;0,679866;0,672103;0,667862;0,664821;0,656787;0,650354;0,649055;0,639058;0,636555;0,635525;0,632968;0,628215;0,616348;0,618198;0,614964;0,610645;0,610286;0,602574;0,600254;0,597591;0,590276;0,590550;0,593232;0,581564;0,579730;0,576265;0,578570;0,574631;0,574825;0,570413;0,567398;0,570072;0,564900;0,558834;0,559922;0,555523;0,557159;0,550697;0,552950;0,552002;0,552506;0,548795;0,547445;0,543742;0,541115;0,542683;0,541085;0,539199;0,541270;0,542806;0,533133;0,537521;0,533478;0,527922;0,529378;0,529153;0,530572;0,531460;0,527900;0,531538;0,523987;0,525958;0,526989;0,522630;0,521477;0,515165;0,519325;0,517066;0,515854;0,515844;0,517310;0,516938;0,516222;0,511932;0,518276;0,510539;0,515169;0,512560;0,514130;0,515043;0,509088;0,508376;0,509016;0,506053;0,508811
0,503247;0,498573;0,504152;0,500665;0,503270;0,505117;0,505232;0,502756;0,505516;0,503610;0,508375;0,505921;0,503592;0,503784;0,504894;0,508551;0,504277;0,509157;0,508908;0,511729;0,507129;0,507241;0,507064;0,509020;0,507810;0,511779;0,516252;0,513156;0,516428;0,518332;0,513467;0,514649;0,518281;0,516530;0,525436;0,518641;0,520620;0,522682;0,527453;0,530183;0,523799;0,527226;0,528559;0,528934;0,529677;0,530086;0,533922;0,531828;0,535384;0,541050;0,535955;0,541342;0,540433;0,540528;0,542630;0,546583;0,551581;0,549237;0,550375;0,552777;0,553634;0,557219;0,558872;0,561856;0,556941;0,561816;0,563888;0,566986;0,568300;0,566575;0,567634;0,565622;0,571829;0,571163;0,571061;0,576031;0,569502;0,573716;0,571071;0,577935;0,573965;0,580325;0,576058;0,583814;0,579635;0,576168;0,574839;0,583446;0,581381;0,586627;0,582928;0,583352;0,582640;0,584972;0,588102;0,587492;0,584955;0,590320;0,592169;0,591040;0,593798;0,597067;0,594331;0,599638;0,602493;0,600417;0,602393;0,609982;0,613274;0,616023;0,616128;0,618761;0,626121;0,627667;0,633432;0,635896;0,644863;0,648754;0,653890;0,662814;0,667031;0,672184;0,681830;0,684258;0,693804;0,696631;0,707152;0,717695;0,725115;0,732786;0,743054;0,749427;0,755495;0,766209;0,776867;0,785995;0,795329;0,801714;0,809203;0,816321;0,823652;0,832875;0,839765;0,852086;0,851849;0,863173;0,873148;0,873950;0,882534;0,886527;0,889867;0,897102;0,901841;0,904384;0,909472;0,908757;0,908566;0,913063;0,910729;0,912912;0,912705;0,907902;0,908896;0,904140;0,904026;0,903322;0,893964;0,892522;0,882717;0,872770;0,869329;0,863921;0,854916;0,848737;0,846032;0,830350;0,822647;0,812887;0,803118;0,795618;0,790127;0,778239;0,769831;0,760126;0,745505;0,736932;0,731849;0,722330;0,712821;0,698271;0,690810;0,682129;0,667630;0,660515;0,651656;0,649673;0,639493;0,630724;0,625959;0,612638
0,591664;0,595906;0,604188;0,605338;0,616176;0,621725;0,632268;0,640414;0,648120;0,650950;0,661329;0,667062;0,675203;0,689078;0,689245;0,697629;0,705015;0,715410;0,726290;0,730493;0,743029;0,747202;0,756767;0,766948;0,773089;0,781237;0,787712;0,795260;0,800980;0,803636;0,811394;0,819707;0,814718;0,826944;0,826250;0,832585;0,839640;0,839461;0,843105;0,837280;0,842859;0,846864;0,845164;0,848791;0,844871;0,838127;0,842182;0,836605;0,838573;0,832939;0,832757;0,828525;0,826112;0,818955;0,816969;0,810021;0,803550;0,803190;0,798299;0,788348;0,787796;0,778471;0,768809;0,764656;0,764068;0,751786;0,747473;0,737219;0,733254;0,728543;0,721588;0,716155;0,707498;0,708420;0,701573;0,695312;0,690793;0,683020;0,688394;0,674727;0,670495;0,670839;0,664691;0,660796;0,659185;0,654569;0,654454;0,644780;0,647384;0,645968;0,640305;0,639711;0,633495;0,635556;0,631066;0,631212;0,628106;0,632003;0,623120;0,624905;0,620055;0,622748;0,625341;0,623643;0,617923;0,620313;0,617666;0,616940;0,618793;0,618270;0,615467;0,621062;0,617821;0,613637;0,614303;0,610833;0,612573;0,607970;0,610726;0,610035;0,608356;0,608412;0,602380;0,608054;0,609445;0,601567;0,599429;0,603915;0,598096;0,598184;0,591979;0,592727;0,595620;0,592532;0,589420;0,590067;0,585747;0,586789;0,583187;0,577734;0,582903;0,578998;0,572741;0,574277;0,569867;0,571721;0,564293;0,569650;0,564527;0,559607;0,565326;0,555676;0,557754;0,555803;0,552489;0,551357;0,549906;0,552647;0,549596;0,549942;0,543327;0,541225;0,541209;0,538642;0,542131;0,532398;0,532597;0,536621;0,531907;0,529008;0,525186;0,533235;0,522199;0,524129;0,519771;0,523393;0,521696;0,525161;0,519790;0,518681;0,520226;0,519568;0,514862;0,511880;0,513788;0,516223;0,512952;0,509826;0,511848;0,508878;0,508874;0,509074;0,506745;0,510657;0,505610;0,500270;0,504147;0,505722;0,499994;0,503285
0,501919;0,501400;0,506040;0,510703;0,504196;0,508820;0,501857;0,501028;0,506422;0,511647;0,510004;0,502847;0,511904;0,510656;0,510455;0,516810;0,512891;0,510771;0,513732;0,512735;0,508311;0,515796;0,514400;0,516520;0,513693;0,514917;0,515508;0,521242;0,521090;0,521332;0,524325;0,524328;0,529646;0,524638;0,529591;0,525116;0,525839;0,531969;0,528308;0,535439;0,538258;0,539660;0,533458;0,542926;0,545044;0,545157;0,544870;0,551915;0,549891;0,555014;0,559196;0,555557;0,559484;0,564188;0,561734;0,563745;0,568491;0,573381;0,570847;0,574616;0,580837;0,581167;0,577041;0,587333;0,587188;0,591716;0,595238;0,595841;0,595387;0,600412;0,603097;0,604283;0,607925;0,615400;0,616994;0,617504;0,624367;0,622795;0,625625;0,625911;0,631228;0,631503;0,636388;0,640708;0,641345;0,646050;0,647472;0,648055;0,656095;0,652124;0,661539;0,665614;0,664589;0,663104;0,675282;0,671795;0,679803;0,673835;0,681077;0,685735;0,687336;0,684716;0,691943;0,700555;0,698075;0,701819;0,709153;0,709889;0,709993;0,715885;0,716259;0,722923;0,721574;0,726058;0,732526;0,731247;0,737482;0,742861;0,743885;0,741523;0,746702;0,749872;0,753603;0,758847;0,760692;0,764641;0,769028;0,769762;0,772218;0,772238;0,772025;0,776192;0,777929;0,778490;0,780509;0,784522;0,790958;0,787366;0,792407;0,791620;0,794217;0,794228;0,795532;0,798251;0,798489;0,801533;0,801118;0,801359;0,803451;0,800813;0,799866;0,799837;0,799925;0,800178;0,797805;0,793962;0,789962;0,793624;0,787274;0,784483;0,785072;0,777164;0,773466;0,776014;0,768628;0,760212;0,759385;0,753011;0,751549;0,747201;0,741542;0,735466;0,727545;0,718696;0,713707;0,711121;0,701563;0,696503;0,685983;0,682273;0,678647;0,676317;0,662897;0,658001;0,652401;0,641497;0,639048;0,631825;0,620565;0,620971;0,610381;0,604197;0,601515;0,595849;0,586234;0,585829;0,576650;0,569121;0,570223;0,564389
0,527366;0,532156;0,527835;0,530396;0,534969;0,536637;0,541628;0,544820;0,544628;0,545865;0,547570;0,549056;0,555073;0,556258;0,561450;0,565559;0,563053;0,571225;0,574661;0,574999;0,580508;0,578010;0,581787;0,589597;0,589056;0,589774;0,594436;0,602126;0,598643;0,603209;0,603218;0,608240;0,609046;0,614663;0,615335;0,619802;0,618658;0,623031;0,620280;0,626934;0,631415;0,633099;0,635496;0,630914;0,633539;0,636348;0,643296;0,642188;0,642070;0,643560;0,647048;0,648898;0,646500;0,646404;0,648419;0,645304;0,649835;0,649131;0,649125;0,651292;0,649396;0,645843;0,651951;0,649254;0,651691;0,651800;0,649263;0,650027;0,650005;0,652457;0,643680;0,648441;0,650535;0,646741;0,649644;0,648873;0,649555;0,648641;0,642972;0,644632;0,643666;0,642394;0,639764;0,637841;0,636512;0,638182;0,635840;0,631897;0,635125;0,634434;0,635084;0,631178;0,628483;0,626267;0,621509;0,624911;0,622738;0,619990;0,619627;0,614938;0,618874;0,617668;0,614872;0,615682;0,611161;0,612909;0,613152;0,612213;0,611919;0,619843;0,618213;0,616514;0,621297;0,619439;0,619763;0,619908;0,620552;0,625662;0,624683;0,628835;0,631549;0,639994;0,639065;0,639512;0,646198;0,651688;0,657695;0,659716;0,665001;0,667529;0,677114;0,676136;0,687848;0,686486;0,692640;0,698644;0,703251;0,707316;0,714311;0,719738;0,723827;0,728963;0,734296;0,742188;0,742977;0,744525;0,751718;0,755544;0,760694;0,762703;0,765191;0,768348;0,771204;0,773077;0,773036;0,779601;0,772599;0,776857;0,773344;0,783635;0,774682;0,773177;0,773846;0,771022;0,770980;0,765636;0,765408;0,760751;0,755649;0,748717;0,750080;0,742041;0,739599;0,736213;0,726207;0,718973;0,714450;0,710457;0,702822;0,695726;0,690281;0,686832;0,677813;0,669839;0,666412;0,660633;0,649615;0,646843;0,636750;0,633043;0,625525;0,618226;0,610296;0,606918;0,602609;0,596525;0,589343;0,585694;0,579010;0,580254
0,545035;0,552379;0,553775;0,556722;0,559677;0,567240;0,568672;0,573606;0,578609;0,579293;0,584576;0,587778;0,590001;0,598231;0,600688;0,603548;0,609389;0,615375;0,614785;0,625055;0,626175;0,629597;0,640391;0,634408;0,646129;0,647138;0,656606;0,658857;0,660588;0,665716;0,670868;0,671481;0,668794;0,670814;0,675926;0,675856;0,681025;0,687484;0,684881;0,685168;0,686921;0,688097;0,690135;0,689832;0,687557;0,691381;0,687196;0,691748;0,693266;0,691605;0,687615;0,688140;0,686368;0,687328;0,684943;0,688475;0,687384;0,682497;0,677789;0,679571;0,678102;0,674513;0,675086;0,675267;0,671627;0,672124;0,669094;0,671081;0,666702;0,668447;0,667574;0,667874;0,664303;0,665902;0,661410;0,661983;0,666281;0,666095;0,671965;0,671308;0,668454;0,669945;0,667015;0,668462;0,670382;0,670958;0,673211;0,678187;0,677657;0,678416;0,678338;0,685778;0,690111;0,690757;0,688914;0,697352;0,698720;0,703457;0,709269;0,706286;0,708476;0,717290;0,721515;0,721603;0,723379;0,726659;0,731228;0,732667;0,731647;0,732644;0,735039;0,741892;0,740802;0,740199;0,740005;0,747052;0,742361;0,747628;0,745639;0,747096;0,747889;0,744036;0,743675;0,743831;0,747617;0,743131;0,740036;0,739213;0,737847;0,735313;0,732957;0,726192;0,725747;0,723595;0,723166;0,716426;0,717187;0,711810;0,706221;0,706401;0,701491;0,697753;0,692956;0,689230;0,685378;0,680605;0,675055;0,670733;0,668996;0,668152;0,662491;0,651654;0,646755;0,648982;0,640393;0,634935;0,636226;0,631588;0,626384;0,623052;0,619807;0,614826;0,614263;0,609730;0,605446;0,598502;0,598644;0,598813;0,586289;0,589438;0,586668;0,582028;0,580272;0,576640;0,578845;0,570440;0,564609;0,561720;0,562468;0,559883;0,561913;0,556749;0,550386;0,551993;0,547720;0,545323;0,547344;0,541137;0,539695;0,537853;0,534439;0,529048;0,532377;0,528422;0,528458;0,528038;0,525230;0,526166;0,519484;0,520842
0,530089;0,530548;0,539255;0,538222;0,540336;0,545937;0,546676;0,545366;0,554162;0,558663;0,557501;0,566656;0,568828;0,567848;0,567610;0,570754;0,577808;0,578739;0,583525;0,587408;0,590855;0,598578;0,598044;0,599753;0,605185;0,612066;0,618775;0,614123;0,622521;0,625055;0,631815;0,635130;0,639472;0,642782;0,647312;0,652646;0,655459;0,660245;0,666033;0,669003;0,673004;0,677500;0,680815;0,688047;0,685811;0,691504;0,700316;0,702997;0,703392;0,711603;0,717016;0,719048;0,720620;0,726819;0,723046;0,738866;0,742520;0,746127;0,746264;0,748008;0,755003;0,756632;0,758222;0,761065;0,765911;0,769676;0,770235;0,777051;0,775841;0,782327;0,783660;0,781626;0,788943;0,783499;0,791392;0,789432;0,796079;0,796392;0,796677;0,797699;0,796987;0,793240;0,795858;0,799189;0,795532;0,798925;0,798660;0,802774;0,798413;0,794280;0,791594;0,789961;0,790547;0,792474;0,791237;0,785588;0,788313;0,782274;0,782364;0,776956;0,777374;0,774763;0,773107;0,769517;0,765957;0,761710;0,757316;0,759285;0,755760;0,751521;0,750162;0,748421;0,741696;0,739290;0,733285;0,733374;0,732333;0,726705;0,721182;0,715412;0,714519;0,709848;0,705789;0,705410;0,700909;0,693236;0,688614;0,691049;0,682708;0,680242;0,678344;0,671839;0,675111;0,663704;0,660333;0,652814;0,651373;0,646164;0,639738;0,639073;0,637879;0,630754;0,625121;0,623537;0,616525;0,614557;0,607793;0,604805;0,603742;0,601162;0,601604;0,591525;0,589940;0,585693;0,589432;0,581960;0,576580;0,575600;0,570083;0,569473;0,565876;0,564720;0,556484;0,554624;0,551311;0,556222;0,555472;0,553141;0,541760;0,539749;0,544217;0,544317;0,540036;0,538345;0,536852;0,535522;0,533216;0,536293;0,528002;0,530316;0,530298;0,526611;0,528970;0,524454;0,523805;0,520800;0,521148;0,524116;0,518152;0,520356;0,516234;0,514781;0,514378;0,515606;0,513401;0,512997;0,512558;0,513315;0,516357;0,517771
0,518167;0,520350;0,518904;0,519309;0,522628;0,528527;0,531213;0,525955;0,528740;0,529697;0,532595;0,530273;0,532868;0,537995;0,538164;0,543939;0,542487;0,540689;0,548196;0,551989;0,550046;0,552028;0,558112;0,554193;0,554018;0,560465;0,562021;0,563729;0,560827;0,565944;0,571285;0,571230;0,567121;0,573598;0,580307;0,576541;0,581619;0,583146;0,584329;0,586143;0,588763;0,588258;0,588832;0,589895;0,596511;0,596383;0,596126;0,595873;0,600549;0,599604;0,603011;0,603837;0,605549;0,608813;0,606015;0,608188;0,610848;0,614718;0,616229;0,617226;0,614304;0,622426;0,618147;0,624988;0,623436;0,631182;0,630520;0,631009;0,634564;0,638072;0,640000;0,639377;0,642250;0,643605;0,644151;0,651292;0,650225;0,652570;0,655636;0,659033;0,661594;0,667267;0,668051;0,672439;0,678360;0,679039;0,682286;0,685296;0,691502;0,692309;0,693672;0,700253;0,704632;0,707608;0,708582;0,720243;0,722612;0,723180;0,729762;0,730262;0,736554;0,741128;0,741764;0,747197;0,747105;0,749811;0,755778;0,759268;0,765355;0,766065;0,766846;0,769802;0,767180;0,770320;0,775463;0,777734;0,777378;0,776618;0,786375;0,782895;0,784448;0,785935;0,785362;0,784243;0,779894;0,782840;0,776745;0,783554;0,784309;0,780752;0,776337;0,779747;0,774008;0,775003;0,769592;0,771210;0,769948;0,767630;0,766385;0,758896;0,758737;0,756057;0,747988;0,745186;0,747634;0,739824;0,740983;0,737260;0,734687;0,729186;0,725210;0,719049;0,713038;0,712387;0,710529;0,706353;0,704631;0,701170;0,695398;0,686711;0,686060;0,679348;0,679546;0,676075;0,668626;0,663724;0,655600;0,653294;0,648105;0,647315;0,645719;0,637060;0,628545;0,628865;0,626797;0,617262;0,618640;0,612909;0,609252;0,601796;0,595743;0,597832;0,592235;0,583953;0,582912;0,577664;0,576273;0,565977;0,566899;0,562616;0,560711;0,556532;0,551174;0,549977;0,547189;0,545915;0,547697;0,537732;0,532682;0,536368
0,519737;0,529820;0,521141;0,524230;0,533493;0,529414;0,538678;0,530728;0,537438;0,540564;0,546101;0,547470;0,554717;0,563757;0,557008;0,560104;0,564601;0,564783;0,566499;0,571046;0,578523;0,582239;0,582134;0,584563;0,585175;0,594230;0,604185;0,606115;0,608233;0,613165;0,619184;0,617662;0,623725;0,632195;0,637600;0,641826;0,647221;0,658022;0,656486;0,661808;0,670543;0,674290;0,681332;0,687358;0,694365;0,700690;0,702345;0,713518;0,719961;0,728810;0,731067;0,738643;0,748614;0,752848;0,758725;0,764500;0,769155;0,776413;0,784433;0,788536;0,796108;0,805708;0,804584;0,806031;0,815909;0,822198;0,827040;0,833232;0,835442;0,837261;0,840368;0,843054;0,849128;0,851040;0,851419;0,859355;0,857106;0,858819;0,863988;0,859601;0,859446;0,856906;0,857326;0,856458;0,856166;0,848552;0,854257;0,843020;0,845862;0,836006;0,837390;0,830881;0,821218;0,821191;0,815159;0,810119;0,805743;0,799269;0,790337;0,783871;0,776313;0,773563;0,768265;0,760829;0,756943;0,745634;0,739036;0,735446;0,727394;0,717970;0,716192;0,712159;0,701521;0,695544;0,689912;0,682537;0,686182;0,676342;0,669761;0,667773;0,658998;0,656542;0,650554;0,645900;0,642999;0,634996;0,634888;0,625391;0,626086;0,623927;0,620730;0,615649;0,619501;0,611202;0,606607;0,605994;0,602094;0,601798;0,596070;0,596867;0,594348;0,596319;0,590360;0,587922;0,587341;0,583073;0,583719;0,584557;0,581940;0,576993;0,579898;0,581833;0,577784;0,571958;0,575999;0,578735;0,572918;0,567596;0,566572;0,569647;0,565590;0,564122;0,562799;0,563386;0,562824;0,565116;0,556032;0,553999;0,552119;0,555161;0,554740;0,552108;0,553833;0,552202;0,548998;0,547676;0,544348;0,542501;0,543213;0,541975;0,540669;0,537253;0,533318;0,536723;0,532590;0,527174;0,534492;0,527937;0,534255;0,530293;0,524244;0,522835;0,526645;0,524103;0,520640;0,524778;0,522592;0,520888;0,522329;0,515100
0,550303;0,555351;0,561060;0,561268;0,563606;0,572697;0,575747;0,576010;0,581955;0,587726;0,589725;0,594745;0,601712;0,604956;0,614479;0,613584;0,620062;0,621939;0,628432;0,635346;0,637193;0,641460;0,644669;0,652701;0,654388;0,659252;0,664143;0,665291;0,668160;0,672323;0,676598;0,683571;0,687069;0,687596;0,688627;0,690704;0,694494;0,693713;0,695122;0,694415;0,695997;0,696889;0,701004;0,701370;0,699841;0,695656;0,703998;0,697589;0,697463;0,699511;0,692683;0,686435;0,684669;0,690432;0,688964;0,684205;0,684801;0,681378;0,677766;0,675237;0,672995;0,670131;0,669068;0,673444;0,668449;0,670695;0,662854;0,656913;0,655629;0,653966;0,649910;0,652987;0,650974;0,646109;0,647707;0,657534;0,645146;0,646127;0,643691;0,648108;0,652520;0,645087;0,649821;0,652448;0,650365;0,651754;0,652148;0,647764;0,655320;0,654343;0,660537;0,660359;0,661241;0,668121;0,668368;0,670880;0,670948;0,676718;0,678903;0,683058;0,680516;0,690059;0,693109;0,689886;0,694554;0,701718;0,702519;0,703466;0,709693;0,707832;0,712855;0,713048;0,718178;0,719792;0,719063;0,722098;0,723841;0,721800;0,725298;0,724697;0,723684;0,726433;0,724094;0,725953;0,723465;0,718381;0,717360;0,720878;0,719155;0,713917;0,715107;0,719197;0,710576;0,707386;0,709528;0,704386;0,702389;0,702146;0,697512;0,690728;0,692824;0,688451;0,681490;0,676353;0,675905;0,671894;0,672149;0,666452;0,662239;0,654078;0,652410;0,648111;0,645604;0,640744;0,640517;0,636927;0,633263;0,624891;0,622483;0,623073;0,615444;0,616544;0,610705;0,603554;0,607545;0,595384;0,592776;0,593502;0,585866;0,586435;0,581384;0,583020;0,576338;0,570162;0,569059;0,563979;0,562597;0,559320;0,557082;0,558274;0,554808;0,549043;0,549018;0,541795;0,541335;0,540319;0,536130;0,536503;0,533774;0,527157;0,528186;0,524240;0,525871;0,523445;0,520445;0,520466;0,519395;0,514986;0,513607;0,513217
0,524562;0,524704;0,528408;0,529719;0,536313;0,533372;0,540696;0,539672;0,545018;0,546827;0,550895;0,554211;0,549472;0,558075;0,560618;0,563770;0,562751;0,568506;0,576711;0,571935;0,577037;0,581553;0,587172;0,584587;0,596744;0,592739;0,597898;0,602598;0,604114;0,611270;0,612721;0,618001;0,621695;0,625055;0,630424;0,632832;0,636930;0,643511;0,643165;0,652479;0,652228;0,660105;0,664889;0,664506;0,668706;0,671810;0,681781;0,682059;0,686864;0,696578;0,695532;0,698667;0,704854;0,704201;0,713020;0,719050;0,723744;0,719958;0,724770;0,728680;0,730299;0,742291;0,743341;0,744742;0,750185;0,756013;0,755456;0,756536;0,761149;0,764150;0,768650;0,765282;0,763993;0,769561;0,774977;0,776018;0,773227;0,779660;0,775874;0,779468;0,781019;0,773168;0,778344;0,771735;0,774122;0,773239;0,773624;0,778888;0,767078;0,769685;0,773972;0,765740;0,763125;0,761013;0,766372;0,758551;0,760312;0,752778;0,754853;0,748422;0,741619;0,739698;0,739442;0,733815;0,729894;0,727394;0,720760;0,720258;0,720054;0,715295;0,713508;0,707170;0,703324;0,697640;0,700595;0,699539;0,694797;0,687771;0,688716;0,684900;0,679622;0,682120;0,675159;0,677773;0,673206;0,669980;0,667591;0,662304;0,663364;0,657711;0,659943;0,657254;0,652612;0,652562;0,643971;0,648046;0,644618;0,644767;0,644506;0,642549;0,641414;0,633017;0,634330;0,629132;0,630978;0,629008;0,624817;0,623832;0,626577;0,621418;0,615971;0,614079;0,615160;0,615693;0,609473;0,611921;0,613703;0,604691;0,604983;0,603479;0,602001;0,599234;0,597851;0,595679;0,593964;0,586604;0,590698;0,583310;0,582934;0,578305;0,573210;0,575790;0,571746;0,570249;0,565137;0,565813;0,563859;0,561580;0,560615;0,554385;0,556281;0,552125;0,546438;0,546582;0,541776;0,541804;0,539475;0,538237;0,530838;0,533774;0,528731;0,528186;0,531259;0,526455;0,523764;0,523110;0,521438;0,518422;0,515785;0,514054
0,503316;0,503460;0,505674;0,503912;0,503867;0,505283;0,501252;0,503986;0,501466;0,504186;0,506639;0,505992;0,505952;0,509587;0,504566;0,511438;0,505530;0,510665;0,515004;0,513730;0,515877;0,519387;0,517901;0,516472;0,519023;0,525249;0,525322;0,524603;0,530103;0,531013;0,530461;0,534013;0,540311;0,535115;0,546117;0,542700;0,547099;0,547952;0,554658;0,557701;0,563534;0,565758;0,570084;0,568172;0,579556;0,581840;0,590355;0,597886;0,592593;0,600990;0,612338;0,616547;0,618719;0,625174;0,631230;0,633744;0,641857;0,652356;0,654769;0,658754;0,672339;0,676179;0,676450;0,682430;0,694573;0,694918;0,698736;0,713508;0,718055;0,722097;0,725894;0,733578;0,740595;0,740103;0,750744;0,748513;0,759094;0,761444;0,769381;0,767361;0,776973;0,777873;0,788159;0,786806;0,793316;0,796161;0,798011;0,801777;0,807502;0,810302;0,809017;0,813357;0,814379;0,815150;0,814350;0,815899;0,824115;0,823327;0,828914;0,828407;0,827449;0,827607;0,828452;0,835289;0,832470;0,835389;0,832991;0,829033;0,829729;0,831023;0,829673;0,832170;0,828472;0,829810;0,820575;0,827433;0,821651;0,817147;0,818931;0,815727;0,808964;0,805646;0,803040;0,800029;0,794513;0,788811;0,788312;0,783356;0,776291;0,776872;0,772165;0,766030;0,760924;0,755206;0,749612;0,741783;0,744617;0,734577;0,728653;0,726020;0,717089;0,706816;0,707695;0,697391;0,691631;0,689929;0,688332;0,675352;0,673570;0,665535;0,661805;0,653664;0,653176;0,647797;0,637227;0,635728;0,622617;0,626478;0,623979;0,614179;0,609050;0,606970;0,602475;0,597323;0,592857;0,587036;0,588264;0,584949;0,578987;0,577438;0,570176;0,570052;0,568344;0,562451;0,561019;0,553908;0,553474;0,553227;0,548513;0,549448;0,544624;0,546286;0,537202;0,542520;0,531494;0,532310;0,531279;0,529412;0,524447;0,525485;0,526837;0,522762;0,522932;0,519418;0,523196;0,521420;0,516836;0,515141;0,518423;0,516686
0,499068;0,504277;0,507370;0,501584;0,504251;0,505269;0,504973;0,507382;0,503438;0,505578;0,506108;0,509136;0,506894;0,502571;0,511070;0,508456;0,513323;0,508010;0,512149;0,510355;0,513911;0,518578;0,518270;0,521955;0,519584;0,524026;0,515849;0,524693;0,526250;0,528990;0,526297;0,531118;0,536300;0,541024;0,541290;0,545065;0,548940;0,543753;0,552841;0,556963;0,561973;0,561487;0,563114;0,575035;0,572956;0,578882;0,580872;0,592387;0,597592;0,593510;0,603627;0,610354;0,613979;0,621258;0,623557;0,634942;0,637977;0,640723;0,646224;0,649986;0,657667;0,663667;0,667418;0,677701;0,681414;0,686930;0,697424;0,699752;0,704587;0,709710;0,717492;0,724608;0,724975;0,732346;0,735190;0,739881;0,746748;0,748486;0,747865;0,762592;0,763023;0,766136;0,770965;0,772025;0,779372;0,782792;0,784437;0,792660;0,789372;0,795015;0,794030;0,793300;0,802933;0,803295;0,807887;0,806480;0,806226;0,809063;0,812215;0,818411;0,816694;0,814874;0,815067;0,817137;0,820655;0,815553;0,812601;0,819733;0,818231;0,817066;0,821859;0,811053;0,817958;0,815606;0,812517;0,815763;0,811992;0,805085;0,807123;0,801849;0,801134;0,797761;0,795152;0,794424;0,793805;0,783461;0,781847;0,777393;0,775750;0,770444;0,766850;0,762864;0,756299;0,746954;0,743167;0,745569;0,735291;0,731130;0,727154;0,724750;0,714690;0,709659;0,702601;0,699213;0,697122;0,689609;0,690335;0,681507;0,670193;0,666708;0,664749;0,656995;0,650288;0,650741;0,645671;0,636444;0,637023;0,628689;0,625204;0,620071;0,620053;0,616261;0,604495;0,601874;0,598868;0,595835;0,596242;0,587362;0,586631;0,579744;0,578902;0,574335;0,566586;0,568016;0,562877;0,557116;0,560349;0,548512;0,549539;0,548749;0,546996;0,537292;0,540606;0,537708;0,534740;0,525889;0,533189;0,528898;0,529803;0,523945;0,525312;0,523585;0,517060;0,516703;0,518646;0,508893;0,517502;0,509324;0,509071;0,505691
0,537408;0,549426;0,551502;0,555134;0,558958;0,561907;0,561915;0,566070;0,568770;0,580305;0,572318;0,580533;0,590157;0,594280;0,596326;0,602010;0,603993;0,613531;0,610917;0,617808;0,625800;0,627359;0,631101;0,631360;0,637954;0,645110;0,648555;0,652779;0,658801;0,661067;0,663552;0,670523;0,670745;0,679352;0,678639;0,683465;0,687182;0,690594;0,688240;0,696933;0,696761;0,701403;0,698311;0,704386;0,703690;0,699780;0,702885;0,706203;0,710262;0,708303;0,711872;0,708640;0,711979;0,710961;0,713481;0,715674;0,715104;0,714270;0,708364;0,708119;0,709868;0,710628;0,711457;0,705277;0,708725;0,704650;0,706474;0,701216;0,704784;0,703200;0,703395;0,703012;0,703807;0,702046;0,701816;0,697434;0,691411;0,696800;0,687505;0,685825;0,689998;0,689499;0,686369;0,683452;0,683896;0,679083;0,679109;0,679595;0,672552;0,677714;0,668127;0,673699;0,664480;0,666776;0,665490;0,661098;0,660071;0,661240;0,659955;0,656928;0,653669;0,654224;0,654067;0,644317;0,649042;0,651491;0,648852;0,651340;0,641948;0,642144;0,642241;0,639654;0,648024;0,642171;0,643516;0,639388;0,643185;0,642820;0,641818;0,639108;0,639415;0,641559;0,645776;0,642959;0,643411;0,649504;0,648135;0,650207;0,654401;0,654169;0,648684;0,654845;0,654139;0,660434;0,654266;0,659515;0,660544;0,661330;0,662332;0,665928;0,670439;0,668286;0,666934;0,672555;0,674406;0,677379;0,676008;0,675153;0,678305;0,680626;0,673029;0,681509;0,674398;0,684314;0,681392;0,676665;0,676698;0,678765;0,674446;0,675704;0,675456;0,671690;0,675976;0,671621;0,671114;0,664499;0,661930;0,661077;0,656235;0,651706;0,653629;0,648025;0,649728;0,644647;0,638883;0,635679;0,631961;0,626031;0,624985;0,618826;0,623069;0,614236;0,614575;0,603271;0,600448;0,595665;0,594021;0,588220;0,584696;0,579654;0,576264;0,571504;0,569379;0,564434;0,558101;0,558378;0,557572;0,553751;0,553779;0,548441
0,557671;0,558002;0,562939;0,565099;0,574562;0,579125;0,581523;0,585630;0,591825;0,591475;0,603833;0,609028;0,612256;0,614671;0,622101;0,627660;0,629059;0,634015;0,642289;0,648212;0,655093;0,656168;0,664125;0,671677;0,677590;0,684802;0,686641;0,688287;0,695312;0,700304;0,711188;0,712194;0,718359;0,716172;0,723708;0,730130;0,732195;0,743624;0,742622;0,741331;0,748102;0,750851;0,750058;0,758757;0,755807;0,763344;0,764521;0,769204;0,766859;0,773900;0,775589;0,774818;0,775456;0,777710;0,778856;0,780839;0,782122;0,778486;0,783636;0,775645;0,782003;0,781504;0,776539;0,776848;0,775085;0,775429;0,778624;0,776586;0,777951;0,769026;0,775128;0,777616;0,776615;0,769183;0,772494;0,767686;0,762127;0,766459;0,761087;0,757728;0,759720;0,758928;0,756026;0,753985;0,749676;0,744520;0,739267;0,739318;0,738841;0,735512;0,735219;0,731215;0,725953;0,720835;0,718912;0,717847;0,719859;0,716966;0,707313;0,706545;0,699838;0,700753;0,696984;0,690523;0,688507;0,686642;0,681381;0,677398;0,673761;0,673664;0,666069;0,667619;0,661681;0,660601;0,657719;0,649754;0,648595;0,647695;0,646012;0,640974;0,636747;0,638375;0,635815;0,631501;0,628046;0,629274;0,621787;0,617102;0,614869;0,617682;0,612564;0,610747;0,608054;0,605827;0,601892;0,598799;0,595458;0,598757;0,593467;0,594221;0,595593;0,588650;0,582387;0,584142;0,578748;0,583349;0,576162;0,579396;0,574989;0,570744;0,570701;0,566863;0,563055;0,562817;0,563141;0,563136;0,562866;0,553350;0,549417;0,558724;0,554183;0,548311;0,553950;0,547155;0,547656;0,544408;0,543289;0,539321;0,538673;0,539247;0,537562;0,532747;0,538537;0,533140;0,526484;0,534775;0,527376;0,521896;0,523480;0,526988;0,525011;0,524107;0,519587;0,522316;0,515917;0,514146;0,516475;0,514125;0,513349;0,509930;0,510480;0,508725;0,511352;0,510137;0,506620;0,508202;0,504251;0,503154;0,504163;0,500902
0,609153;0,615716;0,625452;0,633603;0,639066;0,649714;0,658360;0,669125;0,671823;0,681593;0,692220;0,705278;0,709760;0,722641;0,728726;0,735755;0,750868;0,760251;0,765359;0,780608;0,786372;0,794050;0,807559;0,811788;0,823103;0,826931;0,839488;0,847557;0,854140;0,866955;0,867977;0,876255;0,881623;0,887586;0,886535;0,893183;0,895064;0,899223;0,904731;0,900223;0,903990;0,900073;0,902876;0,901859;0,896910;0,891154;0,893142;0,888557;0,881497;0,885127;0,882440;0,871424;0,863450;0,859780;0,851084;0,847307;0,840380;0,827906;0,827500;0,815682;0,804037;0,801623;0,789335;0,784258;0,775078;0,761959;0,759299;0,751663;0,741549;0,729201;0,723210;0,710657;0,706834;0,700186;0,690487;0,684333;0,682604;0,674258;0,666081;0,662176;0,652961;0,650430;0,646844;0,634727;0,636337;0,635316;0,625891;0,620884;0,620459;0,615441;0,613020;0,604594;0,608679;0,609817;0,603516;0,597814;0,598308;0,596860;0,594401;0,595389;0,595441;0,595028;0,593772;0,589849;0,592014;0,589127;0,589120;0,588305;0,584163;0,589413;0,581288;0,589718;0,583814;0,583437;0,586285;0,585330;0,582039;0,584762;0,577744;0,581414;0,584700;0,579766;0,581351;0,583400;0,575012;0,580913;0,578680;0,575610;0,574345;0,574991;0,568535;0,565385;0,568817;0,569095;0,564765;0,564403;0,564808;0,566874;0,563909;0,558939;0,560820;0,554296;0,555006;0,551863;0,554914;0,546293;0,543429;0,541652;0,542945;0,542465;0,544134;0,537485;0,534114;0,534444;0,535212;0,528860;0,533316;0,529060;0,528941;0,529679;0,525389;0,525624;0,516258;0,520203;0,518158;0,523049;0,517662;0,519382;0,516818;0,516983;0,512858;0,513439;0,514366;0,518635;0,512812;0,510597;0,507661;0,508732;0,512028;0,506764;0,509698;0,501906;0,509699;0,506992;0,505056;0,504537;0,508354;0,507582;0,504281;0,506199;0,502247;0,501186;0,502709;0,504496;0,503185;0,498762;0,502125;0,502619;0,504461;0,504270
0,553993;0,561742;0,568533;0,572787;0,571527;0,578689;0,586251;0,588798;0,591429;0,596747;0,604873;0,609302;0,614192;0,622539;0,623803;0,635603;0,637555;0,648901;0,654077;0,654211;0,664307;0,663135;0,672958;0,676508;0,686065;0,684505;0,694826;0,698818;0,703359;0,702866;0,709499;0,714890;0,720129;0,720417;0,735564;0,727675;0,737339;0,739212;0,738502;0,743173;0,742200;0,748332;0,746572;0,749608;0,749767;0,751517;0,758846;0,754791;0,753445;0,759536;0,756334;0,755273;0,754512;0,752631;0,753522;0,753979;0,749054;0,751201;0,747801;0,749772;0,742134;0,746088;0,741831;0,739774;0,739893;0,738658;0,738943;0,734142;0,735253;0,731165;0,731502;0,736417;0,731140;0,726638;0,727790;0,723702;0,724177;0,724537;0,723833;0,721588;0,720013;0,718875;0,719202;0,720845;0,723004;0,721138;0,718949;0,717602;0,714850;0,726115;0,719225;0,712377;0,717718;0,719786;0,719949;0,722562;0,720848;0,720628;0,722810;0,724339;0,720656;0,722893;0,724827;0,724177;0,721437;0,724495;0,724925;0,725271;0,724206;0,720393;0,722749;0,721499;0,716871;0,720199;0,718080;0,715721;0,712852;0,709389;0,711202;0,711483;0,709137;0,704598;0,699862;0,701662;0,700644;0,691871;0,690431;0,685651;0,685127;0,680114;0,677789;0,673968;0,669665;0,665719;0,658585;0,657842;0,651582;0,653989;0,642084;0,639940;0,634509;0,630094;0,628956;0,617902;0,620811;0,611264;0,608096;0,603387;0,601076;0,594330;0,588304;0,586032;0,584572;0,578500;0,575791;0,576202;0,566963;0,562033;0,562631;0,556209;0,551947;0,548054;0,546708;0,548899;0,544381;0,539331;0,535590;0,534394;0,537650;0,529848;0,528729;0,530738;0,525538;0,525274;0,525909;0,523926;0,525516;0,519348;0,517085;0,519203;0,512316;0,517291;0,514568;0,513072;0,518464;0,518096;0,516644;0,514578;0,511579;0,511255;0,511799;0,507262;0,508756;0,507626;0,512697;0,507608;0,501837;0,510076;0,502714;0,509123
0,571822;0,576085;0,580515;0,584548;0,582506;0,590075;0,601095;0,600267;0,612495;0,611211;0,621479;0,627031;0,632856;0,642518;0,644137;0,652332;0,658527;0,665500;0,673876;0,674125;0,682139;0,689182;0,697998;0,707582;0,712529;0,721421;0,722913;0,729243;0,734383;0,740424;0,745673;0,754366;0,759632;0,759623;0,771237;0,772955;0,774103;0,783669;0,782337;0,787931;0,793660;0,796060;0,799580;0,797633;0,802000;0,801672;0,808781;0,811477;0,813542;0,805309;0,814142;0,809776;0,815025;0,816397;0,817339;0,812707;0,814104;0,811724;0,815974;0,813234;0,812040;0,810161;0,806349;0,806473;0,800967;0,804624;0,801621;0,798283;0,794841;0,796133;0,789714;0,789511;0,786742;0,783287;0,781695;0,774181;0,776160;0,769636;0,760201;0,760813;0,755665;0,751353;0,746996;0,742991;0,743523;0,734147;0,728946;0,723839;0,721119;0,714747;0,710995;0,700407;0,702895;0,692973;0,688304;0,684212;0,676911;0,671830;0,667210;0,662346;0,656042;0,655860;0,647199;0,639817;0,638466;0,633759;0,629998;0,619265;0,617809;0,615889;0,608667;0,608013;0,597847;0,598532;0,594566;0,591013;0,596814;0,586580;0,586908;0,581508;0,578160;0,576156;0,575807;0,574224;0,572277;0,563493;0,567320;0,566077;0,565047;0,567653;0,569376;0,562168;0,566002;0,561142;0,564250;0,566668;0,561491;0,561163;0,565008;0,563935;0,558357;0,566974;0,563148;0,557746;0,564192;0,563931;0,565742;0,562554;0,565515;0,563039;0,565700;0,569087;0,570102;0,568825;0,569793;0,565194;0,563324;0,567077;0,570074;0,568665;0,564605;0,567897;0,561341;0,564553;0,564853;0,560580;0,566006;0,558954;0,561870;0,560854;0,558371;0,558470;0,560634;0,554788;0,557025;0,553078;0,552746;0,554204;0,551575;0,549269;0,545454;0,545628;0,542599;0,543141;0,541640;0,535019;0,534636;0,530905;0,533657;0,527712;0,532727;0,530434;0,528046;0,528953;0,524558;0,520301;0,521271;0,520545;0,521001;0,523677
0,498608;0,505093;0,503656;0,508438;0,505496;0,504094;0,504474;0,503277;0,504019;0,509553;0,505003;0,508897;0,510431;0,510484;0,511326;0,517197;0,513332;0,518442;0,511902;0,520460;0,524760;0,518420;0,525634;0,530042;0,536170;0,536108;0,537582;0,543176;0,541322;0,546588;0,552875;0,560002;0,563425;0,567765;0,572069;0,576267;0,581797;0,588241;0,597409;0,598930;0,608367;0,614488;0,621508;0,630736;0,635468;0,648532;0,653337;0,662704;0,670558;0,679217;0,687832;0,697883;0,709435;0,718410;0,725057;0,735301;0,744849;0,749506;0,764605;0,771823;0,783179;0,795610;0,798161;0,809550;0,818962;0,826203;0,837419;0,843185;0,852745;0,855817;0,865580;0,867807;0,879459;0,880815;0,883721;0,886642;0,888530;0,893003;0,899844;0,898346;0,900131;0,901825;0,899902;0,903461;0,907567;0,895278;0,903353;0,895612;0,892400;0,889000;0,886879;0,884578;0,881032;0,872560;0,869484;0,862779;0,860079;0,850596;0,844681;0,833772;0,834781;0,826961;0,815283;0,811769;0,805945;0,793203;0,788152;0,776461;0,773446;0,764872;0,760814;0,751251;0,740519;0,734264;0,732479;0,725369;0,718150;0,711342;0,707592;0,696835;0,689326;0,683504;0,680666;0,670046;0,669627;0,663595;0,661388;0,650069;0,648561;0,642606;0,638245;0,631149;0,632135;0,627334;0,626224;0,617436;0,621244;0,609059;0,612797;0,605560;0,607183;0,598329;0,595404;0,591897;0,590800;0,588719;0,590193;0,582716;0,583862;0,581025;0,578160;0,575780;0,574091;0,571872;0,568001;0,566936;0,567132;0,560412;0,566777;0,559802;0,557682;0,556353;0,556325;0,554790;0,553101;0,550251;0,545824;0,543210;0,543148;0,549832;0,540312;0,532799;0,537901;0,538927;0,534366;0,537093;0,532094;0,530757;0,529711;0,528517;0,533435;0,527125;0,526427;0,522744;0,519866;0,514290;0,523920;0,515490;0,516484;0,516067;0,517660;0,514448;0,517500;0,512648;0,511369;0,509636;0,508355;0,507239;0,511299;0,508856
