10723;10656;10590;10525;10460;10397;10334;10272;10211;10150;10090;10031;9973;9915;9859;9802;9747;9692;9637;9584;9531;9478;9426;9375;9324;9274;9225;9176;9127;9079;9032;8985;8938;8892;8847;8802;8758;8714;8670;8627;8584;8542;8500;8459;8418;8377;8337;8297;8258;8219;8180;8142;8104;8067;8030;7993;7956;7920;7885;7849;7814;7779;7745;7711;7677;7643;7610;7577;7545;7512;7480;7449;7417;7386;7355;7324;7294;7264;7234;7204;7175;7146;7117;7088;7060;7032;7004;6976;6949;6921;6894;6868;6841;6815;6788;6762;6737;6711;6686;6661;6636;6611;6586;6562;6538;6514;6490;6466;6443;6419;6396;6373;6350;6328;6305;6283;6261;6239;6217;6196;6174;6153;6132;6111;6090;6069;6048;6028
0.03105;0.0307;0.03062;0.03137;0.03295;0.03643;0.04159;0.04686;0.05405;0.05976;0.06327;0.06556;0.06648;0.06634;0.06586;0.06539;0.06415;0.06274;0.06166;0.06017;0.05891;0.05805;0.05703;0.05611;0.05522;0.05461;0.05412;0.05354;0.05376;0.05426;0.0544;0.0552;0.05644;0.05841;0.06152;0.06738;0.07666;0.08894;0.10337;0.11916;0.13413;0.14786;0.16004;0.17217;0.18386;0.19411;0.20053;0.20457;0.20443;0.19953;0.19245;0.18387;0.17597;0.17033;0.16539;0.16242;0.16016;0.15894;0.15822;0.15713;0.15618;0.15477;0.15301;0.15246;0.15273;0.15364;0.15687;0.16197;0.16873;0.1774;0.18877;0.20229;0.21781;0.23369;0.25;0.26567;0.27907;0.29319;0.30761;0.32687;0.35284;0.38924;0.43421;0.49002;0.55233;0.61421;0.67196;0.72087;0.75941;0.78669;0.80391;0.81293;0.82208;0.82491;0.82413;0.82462;0.81715;0.80931;0.79988;0.79072;0.78036;0.77149;0.7634;0.75409;0.74482;0.7385;0.73399;0.72895;0.72599;0.72195;0.71987;0.7158;0.71204;0.70737;0.70101;0.69196;0.68241;0.66981;0.659;0.64529;0.63301;0.62113;0.60852;0.59732;0.58642;0.57786;0.56806;0.56143
-0.03996;-0.03986;-0.04013;-0.03941;-0.03795;-0.03482;-0.03019;-0.02529;-0.01951;-0.01458;-0.01129;-0.00945;-0.00836;-0.00815;-0.00845;-0.00883;-0.00973;-0.01061;-0.01168;-0.01249;-0.01359;-0.01433;-0.01476;-0.01548;-0.01607;-0.01651;-0.01685;-0.01669;-0.01675;-0.01623;-0.01559;-0.01496;-0.01356;-0.01205;-0.00907;-0.00387;0.00447;0.01513;0.02764;0.04172;0.05509;0.0673;0.07856;0.08959;0.10024;0.10983;0.11606;0.11945;0.11962;0.11536;0.10854;0.10107;0.09378;0.08877;0.08469;0.08212;0.08035;0.07947;0.07853;0.07782;0.07671;0.07546;0.07464;0.07414;0.07435;0.07532;0.0786;0.08312;0.08932;0.09723;0.10747;0.11997;0.1343;0.1489;0.16435;0.17875;0.19151;0.20487;0.21847;0.23666;0.26204;0.2964;0.33986;0.39414;0.45437;0.51531;0.57193;0.6208;0.65775;0.68562;0.70241;0.71127;0.7198;0.72352;0.72332;0.72335;0.71499;0.70842;0.70007;0.69112;0.67976;0.67261;0.66316;0.65448;0.64638;0.64044;0.63537;0.63107;0.62783;0.62414;0.62198;0.61872;0.61491;0.60978;0.60426;0.59474;0.58527;0.57398;0.56303;0.55075;0.53787;0.52608;0.5144;0.50371;0.49186;0.48417;0.47543;0.46926
-0.03717;-0.03733;-0.03734;-0.03689;-0.03519;-0.03202;-0.02708;-0.02246;-0.01627;-0.01115;-0.0078;-0.00568;-0.00474;-0.00452;-0.0049;-0.00541;-0.00603;-0.00729;-0.00837;-0.00935;-0.0103;-0.01126;-0.01188;-0.01262;-0.01326;-0.01381;-0.01423;-0.0143;-0.01428;-0.01345;-0.01324;-0.01286;-0.01146;-0.00982;-0.00689;-0.00186;0.00645;0.01723;0.02992;0.04437;0.05806;0.07071;0.08158;0.09288;0.10398;0.1135;0.12001;0.12373;0.12367;0.11927;0.11199;0.10374;0.09619;0.09082;0.08629;0.0836;0.08202;0.08073;0.08017;0.07932;0.07824;0.07709;0.0758;0.0754;0.07537;0.0763;0.07946;0.08379;0.08998;0.09789;0.10783;0.12047;0.13487;0.14931;0.16465;0.17917;0.19215;0.20506;0.21904;0.23688;0.26196;0.29611;0.33909;0.39255;0.45295;0.51317;0.57003;0.61982;0.65748;0.68569;0.70301;0.71243;0.72043;0.72464;0.72469;0.72547;0.71758;0.71113;0.70203;0.69344;0.68257;0.67352;0.66518;0.657;0.6488;0.64212;0.63683;0.63334;0.63008;0.62689;0.6238;0.62076;0.61637;0.6119;0.6055;0.59719;0.58699;0.57525;0.56317;0.55095;0.53859;0.52723;0.51358;0.50378;0.49168;0.48361;0.47425;0.46751
-0.03993;-0.04035;-0.04048;-0.03958;-0.03808;-0.03465;-0.02988;-0.02511;-0.01865;-0.01355;-0.01037;-0.00823;-0.00737;-0.00713;-0.00724;-0.00789;-0.00862;-0.00939;-0.01078;-0.01159;-0.01256;-0.01333;-0.01421;-0.01488;-0.01541;-0.01566;-0.01607;-0.0162;-0.01607;-0.01552;-0.015;-0.01466;-0.01306;-0.01161;-0.00851;-0.00341;0.00486;0.0156;0.02818;0.04221;0.05556;0.06775;0.07888;0.08979;0.10025;0.10968;0.11582;0.11936;0.11944;0.11514;0.10858;0.10125;0.09433;0.08917;0.08497;0.08283;0.08107;0.07989;0.07924;0.07852;0.07758;0.07648;0.07543;0.07486;0.0749;0.07593;0.0793;0.08346;0.08943;0.09794;0.10767;0.12014;0.13432;0.14865;0.16377;0.17807;0.19084;0.20387;0.21677;0.23427;0.2592;0.29339;0.33649;0.39053;0.4518;0.5134;0.57187;0.62234;0.66262;0.69091;0.70938;0.71902;0.72766;0.73189;0.73103;0.73107;0.72312;0.7158;0.70622;0.69695;0.6861;0.67641;0.66706;0.65841;0.65064;0.64367;0.63822;0.63502;0.63052;0.62769;0.62489;0.62208;0.61835;0.61329;0.60586;0.59705;0.58692;0.57462;0.56303;0.54988;0.53631;0.52447;0.51156;0.50072;0.48995;0.48083;0.47121;0.46428
-0.08433;-0.08443;-0.08457;-0.08395;-0.0826;-0.07949;-0.07568;-0.07103;-0.06527;-0.06094;-0.05775;-0.05607;-0.05506;-0.05517;-0.05509;-0.05568;-0.0565;-0.0575;-0.05825;-0.05902;-0.06032;-0.06086;-0.06145;-0.06235;-0.06289;-0.06321;-0.06362;-0.06362;-0.06351;-0.06284;-0.06241;-0.06159;-0.0603;-0.05879;-0.05605;-0.05118;-0.04312;-0.03333;-0.02139;-0.00856;0.00428;0.01582;0.02632;0.03655;0.04663;0.05535;0.06124;0.06456;0.06443;0.06067;0.0547;0.04786;0.04138;0.03656;0.03281;0.03059;0.02889;0.02787;0.02734;0.02679;0.02583;0.02459;0.02373;0.02346;0.02345;0.02445;0.0276;0.03169;0.03716;0.04498;0.05457;0.06659;0.07989;0.09354;0.10799;0.12137;0.13311;0.1452;0.15773;0.17415;0.1976;0.22918;0.26944;0.31926;0.37528;0.43184;0.48538;0.5329;0.56907;0.59511;0.61164;0.62109;0.62903;0.63288;0.63219;0.63236;0.62483;0.61838;0.61148;0.60146;0.59207;0.58352;0.57526;0.56671;0.55954;0.55374;0.54909;0.54518;0.54332;0.53958;0.53735;0.53492;0.53136;0.52653;0.52051;0.51279;0.50279;0.49209;0.48197;0.47003;0.4576;0.44701;0.43556;0.42581;0.41587;0.40741;0.39892;0.39296
0.01876;0.0182;0.01806;0.01821;0.01939;0.02212;0.0254;0.03036;0.03599;0.03995;0.04295;0.0448;0.04573;0.04536;0.04517;0.04522;0.04418;0.0427;0.04192;0.04071;0.04046;0.03938;0.03868;0.03842;0.03748;0.03686;0.03693;0.03669;0.03686;0.03689;0.03714;0.03814;0.03896;0.04082;0.04344;0.04803;0.05525;0.06495;0.07626;0.08846;0.10058;0.11155;0.12153;0.1308;0.14042;0.14906;0.15457;0.15798;0.15751;0.15466;0.14896;0.14242;0.13605;0.13116;0.12674;0.12455;0.12289;0.1219;0.12146;0.12047;0.11956;0.1188;0.11736;0.11675;0.11716;0.11819;0.12091;0.12434;0.13025;0.13719;0.14571;0.15661;0.16909;0.18223;0.19576;0.20839;0.21961;0.23101;0.24241;0.25741;0.2784;0.30728;0.34275;0.38757;0.43803;0.48815;0.53666;0.57692;0.60748;0.63052;0.64599;0.6528;0.65962;0.66251;0.66312;0.66143;0.65634;0.65025;0.64293;0.63526;0.62753;0.62042;0.61314;0.60446;0.59891;0.59336;0.5901;0.58653;0.58315;0.5822;0.58039;0.57792;0.57469;0.57044;0.56534;0.55753;0.54967;0.54144;0.53082;0.52185;0.51114;0.5006;0.49228;0.48452;0.47414;0.46807;0.46093;0.45606
0.00383;0.00328;0.00321;0.00317;0.00436;0.00699;0.01044;0.01527;0.02072;0.02475;0.02773;0.02955;0.0306;0.03037;0.03009;0.03034;0.02919;0.0283;0.02722;0.02629;0.02551;0.02463;0.02405;0.02333;0.02259;0.0221;0.02221;0.02189;0.02204;0.02203;0.0224;0.02318;0.02399;0.02594;0.02867;0.0331;0.04045;0.04993;0.06129;0.07335;0.08538;0.09638;0.1068;0.11581;0.12537;0.13399;0.13918;0.14252;0.14233;0.13919;0.13314;0.12631;0.11994;0.11515;0.1109;0.10869;0.10705;0.10595;0.10566;0.10449;0.10348;0.1024;0.10125;0.10087;0.10123;0.10237;0.10475;0.10835;0.11364;0.12017;0.12938;0.14028;0.15233;0.16508;0.17829;0.19104;0.20253;0.21349;0.22477;0.23967;0.26053;0.28866;0.3241;0.36814;0.41787;0.46804;0.51581;0.55653;0.58748;0.61046;0.62607;0.63396;0.64019;0.6439;0.64476;0.64274;0.63861;0.63284;0.62532;0.61792;0.60975;0.60289;0.59675;0.5878;0.58114;0.57607;0.57246;0.56869;0.56547;0.56429;0.56225;0.56016;0.55759;0.55278;0.54872;0.54025;0.53262;0.52361;0.5136;0.50368;0.49353;0.48407;0.47484;0.46665;0.45711;0.45064;0.44368;0.43802
-0.04523;-0.0457;-0.04553;-0.04548;-0.04392;-0.04062;-0.037;-0.03157;-0.02612;-0.02114;-0.01822;-0.01567;-0.01493;-0.01474;-0.01499;-0.01503;-0.01591;-0.01703;-0.01821;-0.01896;-0.01958;-0.02051;-0.02101;-0.02181;-0.02242;-0.02301;-0.02322;-0.02346;-0.02313;-0.02287;-0.02273;-0.0216;-0.02088;-0.01909;-0.01615;-0.0113;-0.00391;0.00677;0.01869;0.03149;0.04429;0.0558;0.06679;0.0769;0.08695;0.09604;0.1022;0.10579;0.105;0.10149;0.09551;0.08851;0.08167;0.07655;0.07229;0.06994;0.06837;0.06753;0.06703;0.06603;0.0652;0.06412;0.06275;0.06217;0.06266;0.06369;0.06631;0.07025;0.07601;0.08347;0.09286;0.1046;0.11793;0.1316;0.14584;0.15947;0.17152;0.18392;0.19615;0.21227;0.23563;0.26669;0.30664;0.35646;0.41232;0.46917;0.5238;0.56992;0.60481;0.63155;0.64821;0.65663;0.66488;0.66789;0.66842;0.66787;0.66109;0.65502;0.64659;0.6381;0.62842;0.62144;0.61287;0.60379;0.59712;0.59102;0.5877;0.58306;0.58003;0.57801;0.57545;0.57256;0.56825;0.56532;0.55938;0.54986;0.54103;0.53149;0.52019;0.50843;0.49594;0.48479;0.47436;0.46466;0.45352;0.44609;0.4378;0.43071
0.03547;0.03452;0.03384;0.03423;0.03608;0.03965;0.04366;0.05023;0.05704;0.06257;0.06625;0.06901;0.0701;0.06989;0.06943;0.06899;0.06774;0.06593;0.06439;0.06291;0.0616;0.06042;0.05938;0.05814;0.05719;0.05635;0.05579;0.05543;0.05516;0.0553;0.0556;0.05612;0.0569;0.05915;0.06229;0.06851;0.07777;0.09057;0.10521;0.12094;0.13642;0.15065;0.1639;0.17577;0.1881;0.19896;0.20612;0.20984;0.20893;0.20445;0.19627;0.18779;0.17952;0.17366;0.16793;0.16487;0.16291;0.16151;0.16064;0.15917;0.15812;0.15657;0.15476;0.15355;0.15386;0.15496;0.15792;0.16269;0.16948;0.17864;0.18993;0.2042;0.21971;0.23626;0.25296;0.26861;0.28319;0.29721;0.3113;0.32979;0.35562;0.39172;0.43626;0.49095;0.55222;0.61342;0.67061;0.71915;0.75505;0.78213;0.80037;0.80976;0.81739;0.81966;0.82202;0.82066;0.81367;0.80703;0.79847;0.78935;0.77899;0.77103;0.76395;0.75302;0.74439;0.73823;0.73368;0.72985;0.72605;0.72417;0.7223;0.71857;0.71462;0.7095;0.70342;0.69323;0.68352;0.67392;0.66101;0.65064;0.63593;0.62523;0.61286;0.60306;0.59057;0.58246;0.57481;0.56706
-0.0386;-0.0392;-0.03964;-0.03923;-0.03748;-0.03447;-0.0305;-0.02505;-0.01905;-0.01391;-0.01064;-0.0083;-0.0072;-0.00732;-0.00737;-0.00765;-0.00873;-0.00997;-0.01151;-0.01231;-0.01308;-0.01429;-0.01469;-0.0157;-0.01629;-0.01686;-0.01716;-0.01747;-0.01739;-0.01707;-0.01695;-0.01608;-0.01523;-0.01327;-0.01039;-0.00487;0.00319;0.01409;0.02674;0.04067;0.05428;0.06699;0.07877;0.08968;0.10045;0.11039;0.11662;0.11995;0.11921;0.11542;0.10879;0.10095;0.09351;0.08795;0.08349;0.08074;0.07873;0.07789;0.07728;0.07615;0.07514;0.07417;0.07255;0.07171;0.07188;0.07302;0.07593;0.08003;0.08621;0.09426;0.10466;0.11701;0.13096;0.14579;0.16112;0.17516;0.18827;0.20123;0.21433;0.23171;0.25586;0.28923;0.33122;0.38306;0.44187;0.50137;0.5577;0.6058;0.64261;0.66961;0.688;0.69664;0.70475;0.70874;0.7102;0.70799;0.70352;0.69566;0.68785;0.67846;0.66814;0.66019;0.65255;0.64181;0.63492;0.62847;0.6247;0.62077;0.61648;0.61453;0.61154;0.60848;0.60491;0.60024;0.59423;0.58517;0.57505;0.56469;0.55384;0.54128;0.52858;0.51733;0.50643;0.49609;0.48468;0.47677;0.46831;0.4618
0.00337;0.00299;0.00315;0.00292;0.0045;0.00745;0.0113;0.01514;0.02005;0.02467;0.02752;0.02938;0.03036;0.03054;0.0303;0.03029;0.02991;0.02928;0.02816;0.02768;0.027;0.02677;0.02616;0.02564;0.02532;0.02519;0.02515;0.02519;0.02536;0.02565;0.02659;0.02747;0.02834;0.03009;0.03281;0.03741;0.04429;0.05323;0.06418;0.0757;0.08671;0.09686;0.10649;0.11494;0.12382;0.13195;0.13657;0.13988;0.14006;0.13704;0.13195;0.12566;0.11986;0.11584;0.11249;0.10989;0.10847;0.10778;0.10724;0.10665;0.10592;0.10493;0.10357;0.1033;0.10377;0.10461;0.10708;0.11083;0.11624;0.12226;0.13086;0.14061;0.15251;0.16469;0.17706;0.18902;0.19898;0.2098;0.22055;0.23454;0.25418;0.28141;0.31531;0.3573;0.40439;0.45208;0.49734;0.53614;0.5658;0.58683;0.60077;0.60909;0.61496;0.61772;0.61879;0.61712;0.61163;0.60622;0.59947;0.59237;0.58465;0.57722;0.57019;0.56308;0.55628;0.55193;0.54838;0.54454;0.54262;0.53982;0.53782;0.53537;0.53169;0.5291;0.52379;0.51738;0.50978;0.50143;0.493;0.48347;0.47396;0.46521;0.45772;0.44966;0.44054;0.43517;0.42904;0.42424
0.03739;0.03722;0.03718;0.03785;0.03959;0.04306;0.04766;0.05296;0.05885;0.06406;0.06805;0.0705;0.07195;0.07195;0.0717;0.07172;0.07084;0.07005;0.06881;0.06756;0.0671;0.06629;0.06579;0.06466;0.06436;0.06383;0.06349;0.06361;0.0634;0.06347;0.06446;0.06527;0.06598;0.06799;0.0707;0.07577;0.08414;0.09486;0.10751;0.12142;0.13471;0.14703;0.15865;0.16945;0.17996;0.1899;0.1958;0.19963;0.19893;0.19463;0.18796;0.18033;0.17339;0.16798;0.16404;0.16141;0.15917;0.15849;0.15789;0.15716;0.15615;0.15482;0.15332;0.15276;0.1534;0.15376;0.15675;0.1608;0.1673;0.17457;0.18472;0.19663;0.211;0.22531;0.24032;0.2544;0.26711;0.28026;0.29323;0.31028;0.3334;0.36686;0.4076;0.4583;0.51532;0.57369;0.6279;0.6741;0.70983;0.73534;0.75224;0.76337;0.7715;0.77409;0.77451;0.77522;0.76803;0.76216;0.75474;0.74838;0.73706;0.72982;0.72256;0.71248;0.70672;0.70016;0.69658;0.69102;0.68841;0.68562;0.68249;0.68063;0.67539;0.67191;0.66592;0.65796;0.64774;0.63758;0.62666;0.61512;0.60159;0.58976;0.57973;0.56952;0.55868;0.55022;0.54133;0.53613
0.04869;0.04816;0.04844;0.04873;0.05052;0.05305;0.0574;0.06221;0.06712;0.0721;0.07533;0.07744;0.07852;0.07842;0.07803;0.07798;0.07754;0.07681;0.07587;0.07494;0.07417;0.07339;0.07295;0.07218;0.07167;0.07154;0.07116;0.0714;0.07135;0.07163;0.07258;0.0736;0.07404;0.07612;0.0786;0.0838;0.09115;0.10107;0.11276;0.12584;0.13772;0.14894;0.15999;0.16962;0.17911;0.18836;0.19363;0.19741;0.19715;0.19348;0.18761;0.18091;0.17442;0.16951;0.16565;0.16314;0.16134;0.16059;0.15982;0.15917;0.15835;0.15736;0.15579;0.15544;0.15613;0.15659;0.15934;0.16335;0.16963;0.17625;0.18527;0.19661;0.20977;0.22348;0.23748;0.25126;0.26257;0.27483;0.28664;0.30314;0.32533;0.35616;0.39564;0.444;0.49937;0.55558;0.60913;0.65514;0.69062;0.7176;0.73346;0.74316;0.75064;0.75345;0.75433;0.75443;0.74751;0.74106;0.73355;0.72488;0.71542;0.70703;0.69988;0.69014;0.68259;0.67694;0.6727;0.66898;0.66564;0.66316;0.66101;0.65821;0.65389;0.64974;0.64334;0.63585;0.62541;0.6161;0.60502;0.59381;0.58028;0.57088;0.5601;0.55032;0.53986;0.53257;0.52404;0.51915
-0.06478;-0.06499;-0.06487;-0.06427;-0.06266;-0.05926;-0.05496;-0.04995;-0.04452;-0.03924;-0.03554;-0.03344;-0.03238;-0.03222;-0.03204;-0.03205;-0.03295;-0.03367;-0.03457;-0.03568;-0.03653;-0.03727;-0.03784;-0.03854;-0.03904;-0.03931;-0.03965;-0.03956;-0.03946;-0.03959;-0.03858;-0.0378;-0.03707;-0.03539;-0.03262;-0.02708;-0.01949;-0.00935;0.00327;0.01621;0.02885;0.04089;0.05222;0.06255;0.07304;0.08254;0.08811;0.09179;0.09123;0.08739;0.08109;0.07373;0.06725;0.06221;0.05845;0.05568;0.05401;0.05299;0.05258;0.05202;0.05099;0.04972;0.04841;0.04817;0.0481;0.04919;0.05168;0.05562;0.06223;0.06974;0.07972;0.09148;0.10579;0.1199;0.13479;0.14923;0.16159;0.17432;0.1876;0.2047;0.22891;0.26333;0.30704;0.36014;0.42114;0.48291;0.5427;0.59382;0.63375;0.66279;0.6804;0.69128;0.69945;0.70335;0.705;0.70316;0.69603;0.68905;0.68145;0.67241;0.66146;0.65234;0.64428;0.63367;0.62638;0.62038;0.61489;0.61059;0.60731;0.60435;0.60166;0.59909;0.59476;0.58833;0.58236;0.57379;0.56226;0.55108;0.5389;0.52527;0.51049;0.49839;0.48635;0.47632;0.46373;0.45478;0.44562;0.43894
0.04782;0.04776;0.04769;0.04831;0.05058;0.05366;0.05862;0.06408;0.07003;0.07575;0.07961;0.08192;0.08329;0.08356;0.08303;0.08303;0.08233;0.08112;0.07999;0.07894;0.07802;0.07731;0.07614;0.07542;0.075;0.07444;0.07401;0.07405;0.07377;0.07394;0.07478;0.07572;0.07631;0.07872;0.08128;0.08692;0.09526;0.10668;0.11994;0.13437;0.14762;0.16071;0.17292;0.18411;0.19524;0.20535;0.21126;0.2151;0.21429;0.2102;0.20341;0.19569;0.18848;0.18325;0.17878;0.17605;0.17414;0.17298;0.17223;0.17148;0.17053;0.16903;0.16731;0.16677;0.16734;0.16816;0.17097;0.17528;0.18235;0.18992;0.20038;0.21274;0.228;0.2433;0.25853;0.27366;0.28597;0.2999;0.31381;0.331;0.35561;0.38936;0.43297;0.48575;0.54524;0.60454;0.66094;0.70941;0.7463;0.77279;0.79049;0.80087;0.80887;0.81166;0.81275;0.81257;0.80563;0.79996;0.79044;0.7819;0.77233;0.76526;0.75721;0.74486;0.73966;0.73376;0.72894;0.72526;0.72162;0.71962;0.71622;0.71432;0.70911;0.70516;0.69823;0.69023;0.6801;0.66838;0.65713;0.64464;0.62953;0.61952;0.60771;0.59793;0.58591;0.57787;0.5691;0.56119
0.02044;0.02061;0.01974;0.02;0.02136;0.0243;0.02834;0.03321;0.03837;0.04343;0.04675;0.04871;0.04912;0.0497;0.04924;0.04878;0.04786;0.04688;0.04554;0.0441;0.04362;0.04237;0.04117;0.04072;0.03973;0.03927;0.039;0.03884;0.03864;0.03879;0.03942;0.03998;0.04089;0.04276;0.04545;0.05098;0.05887;0.07006;0.0821;0.09529;0.10811;0.12025;0.13089;0.14096;0.15131;0.16047;0.16572;0.16889;0.16852;0.16453;0.15806;0.15086;0.14383;0.13897;0.13486;0.13156;0.12969;0.12873;0.12808;0.1271;0.12631;0.12525;0.12354;0.12271;0.12338;0.12423;0.12669;0.13076;0.13679;0.14388;0.15351;0.16514;0.17855;0.19273;0.20743;0.22052;0.23237;0.24505;0.25712;0.27393;0.29663;0.32786;0.36654;0.41449;0.46914;0.5242;0.57555;0.6194;0.6536;0.67801;0.6935;0.70326;0.709;0.71336;0.71373;0.7124;0.70666;0.70064;0.69263;0.68538;0.67697;0.66862;0.66132;0.65302;0.64481;0.63901;0.63413;0.62995;0.62742;0.62405;0.6224;0.61931;0.61528;0.61032;0.6055;0.59719;0.58816;0.57892;0.56837;0.55786;0.54648;0.53636;0.52606;0.51723;0.50806;0.50103;0.49316;0.4883
-0.04124;-0.04138;-0.04239;-0.042;-0.04042;-0.03763;-0.03315;-0.02819;-0.02218;-0.01678;-0.01339;-0.01107;-0.01028;-0.00985;-0.01011;-0.01074;-0.01193;-0.01278;-0.01416;-0.0154;-0.01675;-0.01767;-0.01888;-0.01971;-0.02083;-0.02147;-0.02179;-0.02215;-0.02237;-0.02202;-0.02161;-0.02086;-0.01984;-0.01817;-0.01513;-0.00918;-4e-04;0.01111;0.02435;0.03919;0.05345;0.06711;0.07931;0.09118;0.10316;0.11321;0.11926;0.12287;0.12254;0.11775;0.10992;0.10165;0.09366;0.08792;0.08323;0.07962;0.07745;0.07638;0.07567;0.07465;0.07363;0.07216;0.07045;0.06938;0.0701;0.07079;0.07361;0.07781;0.08471;0.09272;0.10361;0.11677;0.13216;0.14792;0.16439;0.17999;0.19378;0.20809;0.22185;0.24103;0.26711;0.30295;0.34751;0.40245;0.46506;0.52638;0.58469;0.6338;0.67198;0.69891;0.71668;0.72702;0.73411;0.73916;0.73961;0.73901;0.73254;0.72624;0.719;0.70998;0.70087;0.6922;0.68357;0.67604;0.66697;0.66002;0.6561;0.65088;0.64792;0.64365;0.64106;0.63826;0.63441;0.6294;0.62396;0.61475;0.60391;0.59289;0.58184;0.56837;0.55498;0.54348;0.5314;0.52071;0.51023;0.50148;0.492;0.48564
0.045;0.04465;0.04405;0.04419;0.04515;0.04767;0.05144;0.05582;0.06081;0.0654;0.06841;0.07049;0.07103;0.07157;0.07106;0.07052;0.06977;0.06885;0.06761;0.06653;0.0657;0.0651;0.06368;0.06343;0.06265;0.06218;0.06199;0.06193;0.06176;0.06183;0.06227;0.06283;0.06396;0.06563;0.06811;0.07344;0.08075;0.09104;0.10225;0.11516;0.12777;0.1393;0.14943;0.15964;0.16954;0.17847;0.1834;0.18642;0.18614;0.18244;0.17566;0.16821;0.16118;0.15658;0.15238;0.14901;0.14681;0.14595;0.14507;0.14447;0.14331;0.14226;0.14062;0.13976;0.1405;0.14092;0.14352;0.1474;0.15341;0.16003;0.16931;0.18017;0.1935;0.20724;0.22122;0.23452;0.24628;0.2588;0.27089;0.28766;0.311;0.34134;0.3799;0.42849;0.48348;0.53864;0.59096;0.63614;0.67136;0.69663;0.7127;0.72261;0.72873;0.73426;0.73432;0.73384;0.72724;0.72189;0.71382;0.7071;0.69842;0.68938;0.68202;0.67236;0.66484;0.6585;0.65352;0.64681;0.64446;0.64065;0.63895;0.63637;0.63161;0.6272;0.62171;0.61325;0.60391;0.59443;0.58441;0.57334;0.56221;0.5518;0.54148;0.53333;0.52325;0.51716;0.50939;0.50445
0.02091;0.02084;0.02051;0.02093;0.0225;0.02573;0.02978;0.03462;0.04014;0.04524;0.04862;0.05091;0.0517;0.05255;0.05196;0.05167;0.05107;0.05003;0.0489;0.04775;0.04711;0.04638;0.0455;0.04497;0.04388;0.04366;0.04353;0.04321;0.04321;0.04352;0.04411;0.04482;0.04585;0.04731;0.05004;0.05514;0.06302;0.07335;0.08528;0.09832;0.11128;0.1234;0.13475;0.14544;0.15594;0.16548;0.17097;0.17427;0.1733;0.16943;0.16291;0.15554;0.14864;0.14382;0.13949;0.13651;0.1349;0.13379;0.13331;0.13247;0.13163;0.13025;0.12874;0.12771;0.12857;0.12932;0.13198;0.13561;0.14247;0.1492;0.15915;0.17094;0.18512;0.19984;0.21478;0.22872;0.24162;0.25463;0.26738;0.28471;0.30895;0.34292;0.3845;0.43662;0.49613;0.55611;0.61182;0.66084;0.69844;0.72532;0.74273;0.75291;0.75914;0.76502;0.7643;0.76441;0.75713;0.75055;0.7413;0.73292;0.72456;0.71423;0.7067;0.69759;0.68976;0.68307;0.67755;0.67384;0.67055;0.66717;0.66522;0.66205;0.65769;0.65167;0.64721;0.63799;0.62765;0.61601;0.60519;0.59284;0.57966;0.5678;0.55636;0.54577;0.53415;0.526;0.51726;0.51093
0.02465;0.024;0.0232;0.02334;0.02494;0.02702;0.03106;0.03574;0.0409;0.04581;0.04889;0.05085;0.05136;0.05171;0.05141;0.05064;0.04986;0.04866;0.04721;0.04591;0.04473;0.04388;0.04256;0.04184;0.04085;0.04022;0.03993;0.03945;0.0393;0.03962;0.0398;0.04022;0.04114;0.04296;0.04551;0.05077;0.05909;0.0697;0.08196;0.09522;0.10824;0.12059;0.13181;0.1422;0.15289;0.16254;0.16765;0.17094;0.17004;0.166;0.15943;0.15204;0.14509;0.14001;0.13607;0.13276;0.13112;0.13005;0.12941;0.12839;0.12771;0.12646;0.12472;0.12397;0.12476;0.12549;0.12804;0.13187;0.13835;0.14516;0.15503;0.16682;0.18055;0.19474;0.20968;0.22344;0.23564;0.24848;0.26044;0.27711;0.30007;0.33164;0.37104;0.41888;0.47372;0.5296;0.58153;0.62707;0.66134;0.68689;0.70206;0.71248;0.71902;0.72432;0.72547;0.72392;0.71739;0.71205;0.70443;0.69626;0.6893;0.67941;0.67306;0.66352;0.65634;0.6498;0.64587;0.64121;0.63843;0.63524;0.63433;0.63105;0.62652;0.62195;0.61685;0.60857;0.59992;0.58963;0.57851;0.56657;0.55478;0.54474;0.5337;0.52403;0.51377;0.50621;0.49732;0.49105
0.006;0.00509;0.00479;0.00502;0.00598;0.0085;0.01282;0.01736;0.0225;0.02707;0.03015;0.03157;0.03245;0.0323;0.03197;0.03143;0.03016;0.0291;0.0283;0.02733;0.02605;0.02509;0.02454;0.02357;0.02303;0.02256;0.0221;0.0219;0.02207;0.02249;0.02318;0.02322;0.02456;0.02625;0.0292;0.03423;0.0422;0.05254;0.06452;0.07775;0.09079;0.10254;0.11342;0.12396;0.13401;0.1431;0.1488;0.15217;0.15227;0.14836;0.14224;0.13504;0.12804;0.12339;0.11903;0.11665;0.11496;0.11389;0.11325;0.11241;0.11137;0.11053;0.10884;0.10851;0.1086;0.10953;0.11306;0.11716;0.12298;0.13044;0.14001;0.15233;0.1659;0.17979;0.19394;0.20773;0.21987;0.23223;0.24487;0.2614;0.28394;0.31543;0.35393;0.40178;0.45582;0.50835;0.55879;0.6014;0.63481;0.65899;0.67329;0.68104;0.6889;0.69151;0.69167;0.69143;0.68424;0.67866;0.67229;0.66375;0.65447;0.64732;0.6407;0.63199;0.62561;0.61983;0.61542;0.6122;0.6091;0.60606;0.6036;0.60134;0.59807;0.59475;0.58903;0.58102;0.57231;0.56265;0.55401;0.54245;0.53146;0.52237;0.51163;0.50334;0.49316;0.48654;0.47976;0.47481
0.00092;0.00014;0;0.00036;0.00174;0.0049;0.00905;0.01399;0.01969;0.02469;0.02786;0.0298;0.0307;0.031;0.03082;0.03018;0.02923;0.02795;0.02695;0.02578;0.02458;0.02358;0.02273;0.02193;0.02138;0.02067;0.02025;0.02022;0.02013;0.02036;0.02065;0.02107;0.02234;0.02417;0.02693;0.03219;0.04057;0.05099;0.06383;0.07789;0.09158;0.10403;0.11581;0.12692;0.13794;0.1475;0.15361;0.15729;0.15726;0.1528;0.14587;0.13784;0.13039;0.12491;0.11993;0.11748;0.11537;0.11418;0.11345;0.11237;0.11137;0.1101;0.10866;0.108;0.10773;0.10874;0.11174;0.1162;0.12228;0.13033;0.14038;0.15298;0.16771;0.18204;0.1978;0.21249;0.22548;0.23882;0.252;0.27002;0.29463;0.32874;0.37097;0.42442;0.48389;0.54502;0.60194;0.65035;0.68733;0.71507;0.73169;0.74121;0.75019;0.75353;0.7533;0.75386;0.74627;0.74037;0.7326;0.72315;0.71279;0.70433;0.69616;0.6863;0.67853;0.67367;0.66775;0.66426;0.66065;0.65742;0.6541;0.65115;0.6477;0.64355;0.63659;0.62765;0.61817;0.60738;0.59569;0.58368;0.57056;0.56018;0.54866;0.5378;0.52699;0.51795;0.51023;0.50366
-0.12901;-0.12832;-0.12775;-0.12681;-0.12506;-0.12166;-0.11755;-0.11288;-0.10722;-0.10227;-0.09913;-0.09676;-0.09582;-0.0954;-0.09497;-0.09521;-0.096;-0.09656;-0.09711;-0.09693;-0.09815;-0.09876;-0.0987;-0.0995;-0.09962;-0.1;-0.09985;-0.09984;-0.09981;-0.09862;-0.0979;-0.09668;-0.09528;-0.09411;-0.09082;-0.08633;-0.07872;-0.06998;-0.0591;-0.04737;-0.03567;-0.02515;-0.01512;-0.00541;0.00422;0.01297;0.01872;0.02184;0.02152;0.01752;0.01208;0.00562;-0.00062;-0.00528;-0.009;-0.01104;-0.01222;-0.01309;-0.01376;-0.01433;-0.01515;-0.01608;-0.01681;-0.01728;-0.01735;-0.01637;-0.01352;-0.00979;-0.00491;0.00272;0.01177;0.0231;0.03632;0.04938;0.06334;0.07622;0.08776;0.09928;0.11158;0.12733;0.15033;0.18098;0.22013;0.26911;0.32434;0.38167;0.43516;0.48193;0.51882;0.54587;0.5614;0.57081;0.5792;0.58274;0.58308;0.58306;0.57584;0.56983;0.56195;0.55252;0.5428;0.53464;0.52694;0.51835;0.51122;0.50534;0.50109;0.49749;0.49391;0.49136;0.48865;0.48638;0.48301;0.47843;0.47291;0.4642;0.45405;0.44332;0.43291;0.42136;0.40857;0.39761;0.38623;0.37606;0.36594;0.35794;0.34986;0.34332
-0.09633;-0.09593;-0.09549;-0.09451;-0.0931;-0.08996;-0.08589;-0.0809;-0.07509;-0.07061;-0.06725;-0.0654;-0.06419;-0.06382;-0.06326;-0.06353;-0.06385;-0.06456;-0.06519;-0.06564;-0.06669;-0.06717;-0.06744;-0.06822;-0.06853;-0.06878;-0.06868;-0.06869;-0.06859;-0.06784;-0.06728;-0.06655;-0.06497;-0.0637;-0.06056;-0.05578;-0.04825;-0.03921;-0.02802;-0.01608;-0.00379;0.0075;0.01753;0.02762;0.03755;0.04611;0.05162;0.05467;0.05458;0.05083;0.04473;0.03802;0.03128;0.02683;0.023;0.02094;0.01951;0.01847;0.01779;0.01744;0.01648;0.01554;0.01491;0.01451;0.0144;0.01558;0.01808;0.0219;0.0272;0.0344;0.04366;0.05437;0.06722;0.07982;0.0936;0.10652;0.11785;0.12969;0.14146;0.15754;0.17983;0.20945;0.24692;0.29434;0.34729;0.40118;0.45222;0.49645;0.53086;0.55639;0.57251;0.582;0.58957;0.59347;0.59399;0.59374;0.58727;0.58191;0.57573;0.56672;0.55762;0.55075;0.54321;0.53556;0.52825;0.52276;0.51828;0.51524;0.5109;0.50859;0.50644;0.50343;0.50066;0.49656;0.49078;0.48301;0.47373;0.46386;0.45431;0.44263;0.43091;0.42065;0.41002;0.40047;0.39156;0.3834;0.37639;0.37039
-0.04492;-0.04478;-0.04482;-0.04392;-0.04272;-0.03962;-0.03539;-0.03046;-0.02501;-0.02022;-0.0174;-0.01507;-0.01428;-0.01383;-0.01402;-0.01427;-0.01517;-0.01583;-0.01646;-0.01727;-0.01807;-0.01897;-0.0194;-0.02025;-0.02063;-0.02089;-0.02119;-0.02107;-0.02101;-0.02062;-0.02011;-0.01959;-0.01836;-0.01628;-0.01421;-0.00925;-0.00139;0.00839;0.01961;0.03215;0.0446;0.05618;0.06638;0.0765;0.0866;0.09501;0.1006;0.10387;0.10335;0.09972;0.0937;0.0872;0.08042;0.07612;0.07211;0.06982;0.0682;0.06735;0.06687;0.06626;0.06525;0.06418;0.06309;0.06283;0.06299;0.06398;0.06676;0.07103;0.07634;0.08349;0.0928;0.10425;0.11719;0.13021;0.14429;0.15738;0.1691;0.18079;0.19322;0.20931;0.2315;0.26193;0.301;0.34879;0.40309;0.45867;0.51109;0.55731;0.59194;0.61813;0.63506;0.64322;0.65123;0.6547;0.65592;0.65546;0.64897;0.64266;0.63539;0.62674;0.61689;0.60938;0.60203;0.59252;0.58607;0.58006;0.57533;0.57222;0.56761;0.56508;0.56272;0.56027;0.55638;0.55255;0.54648;0.53758;0.52812;0.5174;0.50787;0.49554;0.48395;0.47337;0.4627;0.45327;0.4441;0.43487;0.42752;0.42157
0.04216;0.0414;0.04115;0.04173;0.04322;0.04574;0.04948;0.05482;0.06037;0.06496;0.06811;0.07032;0.07124;0.07134;0.07093;0.07079;0.0697;0.06861;0.06748;0.06635;0.06573;0.06473;0.0641;0.06334;0.06275;0.06206;0.062;0.06177;0.06183;0.06183;0.06222;0.06283;0.06379;0.06569;0.06803;0.07288;0.08;0.0904;0.10196;0.11496;0.12717;0.13895;0.14987;0.15968;0.16995;0.1791;0.18495;0.1884;0.188;0.18471;0.17848;0.17151;0.16485;0.16009;0.15555;0.15286;0.151;0.15028;0.14976;0.1484;0.14789;0.14651;0.14485;0.14431;0.14475;0.14564;0.14829;0.15217;0.15796;0.16511;0.17473;0.18617;0.19936;0.2136;0.22785;0.24135;0.25378;0.26579;0.27747;0.29366;0.31614;0.34753;0.38645;0.43583;0.4918;0.54853;0.60259;0.64769;0.68256;0.70823;0.72548;0.73276;0.7411;0.74371;0.74431;0.74317;0.73717;0.73135;0.72137;0.71243;0.70312;0.69531;0.6877;0.67686;0.67134;0.66534;0.66151;0.65763;0.6533;0.65338;0.65122;0.64717;0.64369;0.64044;0.63458;0.62581;0.61594;0.60613;0.59487;0.58362;0.57064;0.56115;0.54909;0.54059;0.5296;0.52075;0.51262;0.50621
-0.00286;-0.004;-0.00399;-0.00386;-0.00213;0.00054;0.00443;0.0095;0.01504;0.02023;0.02319;0.02559;0.02654;0.0265;0.0263;0.02601;0.02524;0.02414;0.02262;0.02143;0.02091;0.01993;0.01917;0.0185;0.01773;0.01707;0.01698;0.01677;0.01697;0.01685;0.01707;0.01775;0.01871;0.02033;0.02324;0.02805;0.03547;0.04575;0.0576;0.07057;0.08326;0.0951;0.1058;0.11579;0.12606;0.13531;0.14135;0.14488;0.14456;0.14093;0.13478;0.1277;0.12088;0.11595;0.11143;0.10907;0.10743;0.10636;0.10609;0.10479;0.10382;0.10288;0.10127;0.10048;0.10082;0.10168;0.10437;0.10805;0.11381;0.12077;0.13066;0.14223;0.15499;0.16846;0.18254;0.1959;0.20792;0.21949;0.2313;0.2471;0.26826;0.29829;0.3364;0.3845;0.4384;0.4936;0.54703;0.59267;0.62806;0.65345;0.67076;0.67939;0.68702;0.69079;0.69146;0.69006;0.68373;0.67697;0.66939;0.66118;0.65139;0.64455;0.63584;0.62641;0.62066;0.61429;0.61052;0.60645;0.60303;0.60108;0.60051;0.59657;0.59312;0.58871;0.58375;0.57468;0.56561;0.55646;0.54464;0.53345;0.52134;0.51027;0.50001;0.49135;0.47944;0.47292;0.46451;0.45699
0.00052;-0.00081;-0.00141;-0.00136;-3e-04;0.00232;0.00628;0.01108;0.01654;0.02098;0.0239;0.02625;0.02689;0.02691;0.02644;0.02613;0.0252;0.02382;0.0224;0.02107;0.02054;0.01932;0.0186;0.01797;0.01714;0.01649;0.01621;0.01616;0.01623;0.01642;0.01655;0.01748;0.0182;0.02014;0.02283;0.028;0.03554;0.04606;0.05797;0.0713;0.08436;0.09643;0.10765;0.11783;0.12868;0.13782;0.14385;0.14758;0.1474;0.14393;0.13748;0.1297;0.12303;0.11769;0.11296;0.11022;0.1085;0.10715;0.10677;0.10546;0.10455;0.10322;0.10188;0.10107;0.10145;0.10241;0.1051;0.10892;0.11482;0.12229;0.13218;0.14451;0.15782;0.17224;0.18706;0.20106;0.21396;0.22635;0.23869;0.25519;0.27806;0.3101;0.35022;0.40012;0.45704;0.51501;0.56931;0.61525;0.65027;0.67645;0.69358;0.70157;0.71035;0.71267;0.71387;0.71256;0.70713;0.70008;0.69182;0.6833;0.67389;0.66607;0.65716;0.64738;0.64083;0.63504;0.63076;0.62697;0.62432;0.62127;0.62021;0.61651;0.61296;0.6086;0.60268;0.59379;0.58492;0.57494;0.56386;0.55335;0.54101;0.52969;0.51956;0.51055;0.49913;0.49148;0.48315;0.47714
0.04678;0.04541;0.0444;0.04432;0.04555;0.04817;0.05176;0.05702;0.06282;0.06751;0.07056;0.07237;0.0734;0.07304;0.07272;0.07209;0.07144;0.06961;0.0682;0.067;0.0662;0.06508;0.06399;0.06314;0.06248;0.06163;0.06132;0.06074;0.06108;0.06091;0.06097;0.06189;0.06251;0.06441;0.06705;0.07263;0.08034;0.09141;0.10389;0.11798;0.13142;0.14408;0.15514;0.16537;0.17626;0.18652;0.19229;0.19602;0.196;0.19237;0.1852;0.17656;0.16834;0.16284;0.15776;0.15447;0.15227;0.1512;0.15083;0.14887;0.14808;0.14705;0.14513;0.14433;0.14479;0.14516;0.1481;0.15196;0.1582;0.16513;0.17476;0.1866;0.19994;0.2141;0.22888;0.24282;0.25541;0.26779;0.28048;0.29715;0.31943;0.34924;0.3875;0.43425;0.48727;0.54075;0.59019;0.63299;0.66483;0.68853;0.70449;0.71193;0.71913;0.72242;0.72318;0.72352;0.71697;0.71183;0.70445;0.69654;0.68822;0.68079;0.67449;0.66494;0.65891;0.65314;0.64869;0.64497;0.64118;0.63991;0.63754;0.63448;0.63089;0.6268;0.62186;0.614;0.60451;0.59611;0.58543;0.57587;0.56479;0.55523;0.54603;0.53727;0.52761;0.52096;0.51248;0.50774
0.02752;0.02618;0.02561;0.02546;0.02683;0.02935;0.03264;0.03805;0.04349;0.04824;0.05096;0.05315;0.05381;0.05385;0.0535;0.05314;0.05202;0.05075;0.04917;0.04835;0.04755;0.04645;0.04557;0.04494;0.04411;0.0435;0.04326;0.04313;0.04314;0.04329;0.04358;0.04432;0.04487;0.04707;0.05001;0.05512;0.06273;0.07341;0.08555;0.0988;0.11199;0.1239;0.1345;0.14448;0.15482;0.16442;0.16999;0.17358;0.17361;0.17027;0.16351;0.15561;0.14825;0.14301;0.13804;0.13517;0.13298;0.13199;0.13148;0.12997;0.1291;0.12811;0.12657;0.12558;0.12581;0.12703;0.12946;0.1335;0.13942;0.14635;0.15575;0.16728;0.18045;0.19425;0.20871;0.22212;0.23456;0.24643;0.2584;0.27491;0.2973;0.32724;0.36549;0.41347;0.46692;0.52253;0.57334;0.6176;0.65121;0.67537;0.69037;0.69861;0.70653;0.70992;0.71036;0.70943;0.70297;0.69692;0.68808;0.68053;0.67123;0.6635;0.65537;0.64547;0.63966;0.6335;0.62849;0.62477;0.62046;0.61894;0.61669;0.61343;0.61038;0.60513;0.60034;0.59218;0.5831;0.57508;0.56421;0.55501;0.54336;0.5334;0.52502;0.51642;0.50767;0.50066;0.49377;0.48815
0.02873;0.02813;0.02814;0.02868;0.02994;0.03289;0.0372;0.04197;0.04812;0.053;0.056;0.05791;0.05881;0.05882;0.05856;0.05801;0.05714;0.05596;0.05522;0.05389;0.05284;0.05224;0.05148;0.05067;0.05021;0.04968;0.049;0.04891;0.04885;0.0493;0.04997;0.05047;0.05181;0.05366;0.05657;0.06165;0.06996;0.08072;0.09306;0.10708;0.12025;0.13226;0.14293;0.1533;0.16354;0.17258;0.17828;0.18178;0.1822;0.17829;0.17196;0.16483;0.15734;0.15256;0.14816;0.14552;0.1432;0.14224;0.14164;0.14055;0.13942;0.13838;0.13664;0.13641;0.13645;0.13704;0.14056;0.14476;0.15065;0.15816;0.16783;0.17926;0.19345;0.20766;0.22231;0.23619;0.24791;0.26051;0.27312;0.28988;0.31244;0.34394;0.38236;0.43064;0.48478;0.53939;0.58913;0.63181;0.66474;0.68887;0.70361;0.71104;0.718;0.72201;0.72131;0.72173;0.71475;0.70802;0.70234;0.69336;0.68479;0.6771;0.66887;0.66162;0.65412;0.64848;0.64406;0.64094;0.63662;0.63466;0.6324;0.62924;0.62604;0.6222;0.61631;0.60899;0.60011;0.59091;0.58123;0.57036;0.56019;0.55036;0.54004;0.53162;0.52199;0.51467;0.50673;0.50224
0.04765;0.04712;0.04688;0.04783;0.04981;0.05329;0.05805;0.06325;0.06978;0.07504;0.07831;0.08072;0.08175;0.08191;0.08188;0.08124;0.08048;0.07929;0.07835;0.07722;0.07609;0.07546;0.07456;0.07377;0.07315;0.07284;0.07214;0.07214;0.07214;0.07251;0.07335;0.07386;0.07481;0.07699;0.07972;0.08514;0.09374;0.10479;0.11757;0.13165;0.14564;0.15815;0.16955;0.18071;0.1912;0.20101;0.20663;0.21023;0.21002;0.20564;0.19896;0.19175;0.18432;0.17955;0.17504;0.17206;0.17037;0.16955;0.16892;0.16773;0.16677;0.16571;0.16397;0.16381;0.1638;0.16453;0.16779;0.17217;0.17845;0.1863;0.19586;0.20823;0.22256;0.23722;0.25193;0.26594;0.27831;0.29158;0.30431;0.32148;0.34508;0.37757;0.41783;0.4676;0.5245;0.58079;0.63356;0.67888;0.714;0.73934;0.75632;0.76426;0.77289;0.77614;0.7755;0.7756;0.76846;0.76243;0.75683;0.74785;0.73739;0.73008;0.7228;0.71356;0.70691;0.70049;0.69549;0.69284;0.68949;0.68607;0.68306;0.68122;0.67675;0.67353;0.66732;0.65782;0.64935;0.6393;0.62854;0.61642;0.60529;0.59373;0.58294;0.57435;0.56403;0.55576;0.54718;0.54138
-0.13721;-0.13653;-0.13586;-0.13462;-0.13278;-0.12903;-0.12401;-0.11827;-0.1117;-0.10624;-0.10214;-0.10005;-0.09872;-0.09804;-0.09779;-0.09827;-0.09891;-0.09955;-0.09997;-0.10011;-0.10162;-0.10217;-0.10234;-0.10313;-0.1035;-0.10366;-0.10399;-0.10399;-0.10366;-0.10271;-0.10163;-0.10079;-0.09914;-0.09779;-0.0943;-0.08916;-0.08082;-0.07049;-0.05822;-0.04524;-0.03251;-0.02043;-0.00923;0.0017;0.01243;0.02195;0.02812;0.03144;0.03092;0.02701;0.02065;0.01362;0.00681;0.00169;-0.00234;-0.00467;-0.00611;-0.0071;-0.00791;-0.0086;-0.00927;-0.01045;-0.01146;-0.01174;-0.01184;-0.01089;-0.00791;-0.00385;0.00189;0.01022;0.0202;0.03267;0.04701;0.0613;0.07641;0.09036;0.10265;0.11537;0.12871;0.1457;0.16959;0.20283;0.2442;0.2959;0.35373;0.41232;0.4682;0.51699;0.55477;0.58271;0.59986;0.60989;0.61737;0.62071;0.62156;0.62064;0.61303;0.60644;0.59814;0.5889;0.57911;0.56945;0.56147;0.55295;0.54454;0.53939;0.53405;0.53079;0.52727;0.5247;0.522;0.51926;0.51551;0.51146;0.50501;0.49592;0.48614;0.47453;0.46305;0.45075;0.43785;0.42582;0.41418;0.40339;0.39328;0.38409;0.37516;0.36835
0.03729;0.03684;0.03626;0.0368;0.03786;0.04092;0.04588;0.05114;0.05738;0.06318;0.06618;0.06829;0.06929;0.06912;0.06884;0.06792;0.0668;0.06548;0.06413;0.06273;0.06153;0.06026;0.05943;0.05868;0.05761;0.05684;0.05637;0.05623;0.05602;0.05653;0.05711;0.05738;0.05848;0.06067;0.06375;0.06956;0.07854;0.09045;0.10398;0.11907;0.13347;0.14684;0.15839;0.16982;0.1809;0.19093;0.1971;0.20089;0.20082;0.19643;0.18953;0.18173;0.17395;0.16879;0.16418;0.16108;0.15885;0.15783;0.15713;0.15619;0.15518;0.1539;0.15208;0.1516;0.15164;0.15251;0.15565;0.16044;0.16695;0.17518;0.18548;0.19843;0.21326;0.22859;0.24418;0.25913;0.27184;0.28518;0.29809;0.31574;0.33978;0.37308;0.41395;0.46482;0.52158;0.57824;0.63225;0.67797;0.71247;0.73836;0.7542;0.76236;0.77067;0.77327;0.7735;0.77304;0.76637;0.76;0.75274;0.74357;0.73291;0.72561;0.71727;0.70793;0.70132;0.69549;0.69033;0.6865;0.6822;0.67971;0.67792;0.67464;0.67025;0.66666;0.66075;0.65114;0.6431;0.6326;0.62292;0.60985;0.59818;0.58733;0.57668;0.56748;0.55637;0.54842;0.5401;0.53441
-0.02864;-0.02891;-0.02877;-0.02774;-0.02644;-0.02336;-0.01922;-0.01427;-0.00878;-0.00398;-0.00077;0.00101;0.00213;0.00263;0.00264;0.002;0.00175;0.00092;7e-05;-0.00076;-0.00171;-0.00232;-0.00277;-0.00339;-0.00387;-0.00412;-0.00437;-0.0043;-0.00431;-0.00384;-0.00303;-0.00271;-0.00153;0.00058;0.00309;0.00771;0.01535;0.02523;0.03669;0.04918;0.06143;0.07284;0.08318;0.09336;0.103;0.1115;0.11738;0.12049;0.12074;0.1166;0.11054;0.10389;0.09731;0.09264;0.08867;0.08667;0.08514;0.08427;0.08381;0.08297;0.08243;0.08108;0.07992;0.07973;0.07984;0.08056;0.08382;0.08761;0.09358;0.10039;0.10947;0.12072;0.13371;0.1471;0.16088;0.17411;0.18568;0.19767;0.20994;0.22609;0.2487;0.2795;0.31838;0.36703;0.42145;0.47789;0.53113;0.57696;0.61242;0.63801;0.655;0.66412;0.67096;0.67452;0.67501;0.67475;0.66819;0.66125;0.65394;0.64572;0.63644;0.62824;0.61968;0.61121;0.60459;0.59803;0.59315;0.59046;0.58651;0.58301;0.58139;0.5785;0.57503;0.56941;0.56475;0.55586;0.54722;0.53612;0.52593;0.51418;0.50197;0.49095;0.47996;0.47037;0.45989;0.45179;0.44328;0.43734
-0.1156;-0.11594;-0.11537;-0.11484;-0.11316;-0.11037;-0.10703;-0.1024;-0.09687;-0.09306;-0.09008;-0.08782;-0.08679;-0.08659;-0.08621;-0.08611;-0.08672;-0.08774;-0.08867;-0.08872;-0.08939;-0.09024;-0.09035;-0.09095;-0.09157;-0.09166;-0.09142;-0.09143;-0.09113;-0.09047;-0.0901;-0.08852;-0.0871;-0.08594;-0.08291;-0.07846;-0.07164;-0.06283;-0.05275;-0.04202;-0.03089;-0.02064;-0.01097;-0.00197;0.00746;0.01525;0.02062;0.02365;0.02312;0.01997;0.01424;0.00786;0.00231;-0.00221;-0.00634;-0.00864;-0.01002;-0.01107;-0.01135;-0.01176;-0.01261;-0.01355;-0.01436;-0.01543;-0.01509;-0.01377;-0.01137;-0.00796;-0.00328;0.00354;0.01246;0.02328;0.03536;0.04797;0.06092;0.07346;0.08474;0.09574;0.10719;0.12201;0.14425;0.17349;0.21061;0.25776;0.31124;0.36648;0.41794;0.46326;0.49825;0.52393;0.54093;0.54883;0.55611;0.56007;0.56022;0.55952;0.55311;0.54698;0.53882;0.5309;0.52233;0.51395;0.50642;0.49699;0.48982;0.48299;0.47807;0.47442;0.47053;0.46885;0.46648;0.46348;0.46001;0.4556;0.44922;0.44086;0.43181;0.4226;0.41106;0.39973;0.38797;0.37772;0.36744;0.35859;0.34827;0.34077;0.33275;0.32737
-0.02836;-0.02857;-0.02841;-0.02789;-0.02656;-0.02367;-0.02013;-0.01513;-0.00985;-0.00564;-0.00247;-0.00022;0.00064;8e-04;0.00087;0.00089;0.00014;-0.00096;-0.00177;-0.00237;-0.00286;-0.00376;-0.00413;-0.00462;-0.00528;-0.00555;-0.00557;-0.00578;-0.00536;-0.00518;-0.00484;-0.0038;-0.00309;-0.00144;0.00116;0.00583;0.01264;0.02197;0.03248;0.04384;0.05524;0.06545;0.07503;0.08374;0.09243;0.1001;0.10533;0.10824;0.10783;0.10494;0.09972;0.09413;0.08879;0.08428;0.08051;0.0786;0.07705;0.07578;0.07586;0.07479;0.07418;0.07351;0.07227;0.07153;0.07186;0.07278;0.07539;0.07896;0.08394;0.0904;0.09865;0.10886;0.12049;0.13256;0.14472;0.15617;0.16687;0.17663;0.18724;0.20034;0.21956;0.24619;0.2787;0.31918;0.36576;0.4125;0.45704;0.49586;0.5241;0.54542;0.56043;0.56693;0.57296;0.57575;0.57667;0.57613;0.5709;0.56492;0.55841;0.55206;0.54337;0.53732;0.52972;0.52182;0.51569;0.51086;0.50753;0.50422;0.50068;0.49952;0.49756;0.49577;0.49305;0.48889;0.48406;0.47727;0.46905;0.46211;0.45274;0.4435;0.43363;0.42518;0.41615;0.40878;0.40054;0.39404;0.38725;0.38212
-0.09165;-0.09177;-0.09187;-0.09102;-0.08914;-0.08626;-0.08269;-0.07773;-0.07236;-0.0678;-0.06446;-0.06243;-0.06152;-0.06127;-0.06094;-0.06079;-0.06144;-0.06228;-0.06332;-0.06375;-0.06433;-0.06524;-0.06556;-0.06601;-0.06674;-0.067;-0.06699;-0.06705;-0.06654;-0.06636;-0.06596;-0.06491;-0.06366;-0.06218;-0.05939;-0.05478;-0.04767;-0.03846;-0.02756;-0.01569;-0.00397;0.00714;0.01741;0.02661;0.03616;0.0446;0.05034;0.05348;0.05277;0.04973;0.0441;0.03772;0.03166;0.027;0.02291;0.02085;0.01926;0.01838;0.01836;0.01742;0.01686;0.0158;0.01504;0.01407;0.0145;0.01559;0.01814;0.02193;0.027;0.03418;0.04278;0.05389;0.06594;0.07903;0.09241;0.10477;0.11652;0.12781;0.13914;0.15389;0.17579;0.20556;0.24262;0.28921;0.34285;0.39702;0.44889;0.49399;0.52865;0.55432;0.5708;0.57926;0.58665;0.58976;0.59122;0.59095;0.58408;0.57767;0.57008;0.56128;0.55301;0.54614;0.53761;0.52839;0.52168;0.51513;0.51064;0.50733;0.50394;0.50239;0.50034;0.49733;0.49451;0.49007;0.48418;0.47576;0.46671;0.45777;0.44682;0.43593;0.42384;0.41346;0.40342;0.39422;0.38429;0.37632;0.3682;0.36264
0.02029;0.01948;0.01927;0.01999;0.02122;0.02436;0.02791;0.03303;0.03864;0.04347;0.04656;0.04864;0.04954;0.04953;0.04938;0.04943;0.04865;0.04777;0.04611;0.04535;0.04479;0.04359;0.04311;0.04252;0.04168;0.04115;0.04091;0.04087;0.04063;0.04109;0.04137;0.04231;0.04293;0.04494;0.04764;0.05266;0.06024;0.07043;0.08213;0.09502;0.1074;0.11915;0.12998;0.13976;0.1499;0.15853;0.1642;0.16745;0.16664;0.16323;0.15704;0.15009;0.1435;0.13851;0.13448;0.13178;0.12991;0.12902;0.12864;0.12748;0.12655;0.12581;0.12422;0.12337;0.12406;0.12459;0.12776;0.13158;0.13711;0.14435;0.15354;0.16464;0.17758;0.19158;0.20515;0.21856;0.23027;0.24208;0.25431;0.27008;0.29196;0.32215;0.35982;0.40674;0.4608;0.51559;0.56728;0.61248;0.64625;0.67117;0.68778;0.69611;0.70374;0.70733;0.70838;0.70735;0.70169;0.69613;0.68823;0.68045;0.67146;0.66395;0.65679;0.64731;0.63981;0.63387;0.62944;0.62624;0.62205;0.62134;0.61845;0.61497;0.61156;0.60741;0.60173;0.59364;0.58441;0.57551;0.5647;0.55439;0.54229;0.53174;0.52258;0.51354;0.50221;0.4953;0.48744;0.48179
0.05413;0.05338;0.05312;0.05338;0.05487;0.058;0.06186;0.06692;0.07271;0.07767;0.08051;0.08289;0.08372;0.08377;0.08352;0.08338;0.08253;0.0813;0.07997;0.07891;0.07803;0.07705;0.07636;0.07553;0.07491;0.074;0.07394;0.07365;0.0736;0.07383;0.07425;0.07502;0.07591;0.07798;0.08072;0.08605;0.094;0.10444;0.11659;0.12984;0.1432;0.15514;0.16641;0.17646;0.18658;0.19584;0.20139;0.20477;0.20451;0.20064;0.19387;0.18666;0.1798;0.17436;0.16988;0.16702;0.165;0.16406;0.16343;0.16213;0.16119;0.16053;0.15888;0.15764;0.15851;0.15935;0.16208;0.16606;0.17195;0.17905;0.1883;0.20055;0.21346;0.22782;0.24262;0.25575;0.26805;0.28021;0.29248;0.30841;0.33051;0.36153;0.39916;0.44666;0.49987;0.55459;0.60468;0.64809;0.6814;0.70538;0.72219;0.73055;0.738;0.74151;0.74208;0.74153;0.73597;0.73007;0.7228;0.71466;0.70582;0.6993;0.69189;0.68187;0.67538;0.66962;0.66539;0.66159;0.65684;0.65622;0.65305;0.65051;0.64727;0.64275;0.63792;0.62937;0.6209;0.61201;0.60092;0.59099;0.58052;0.56967;0.56101;0.55242;0.54209;0.53463;0.528;0.52194
0.07218;0.07147;0.07072;0.07058;0.07214;0.07489;0.07928;0.08389;0.08977;0.09489;0.0983;0.10043;0.10076;0.10058;0.10031;0.09961;0.09876;0.09774;0.09619;0.09551;0.09434;0.09371;0.09276;0.09214;0.09135;0.09078;0.09047;0.0902;0.09016;0.0901;0.09101;0.09163;0.09232;0.09467;0.09729;0.10261;0.1103;0.1208;0.13349;0.14745;0.16038;0.17233;0.1836;0.19399;0.20468;0.21459;0.22055;0.22426;0.22404;0.22028;0.21398;0.20612;0.1992;0.19388;0.18937;0.18612;0.18412;0.18322;0.18236;0.1814;0.18063;0.17919;0.17713;0.17629;0.17708;0.17781;0.18033;0.18458;0.19081;0.19815;0.20759;0.21923;0.2337;0.24863;0.26355;0.2773;0.28959;0.30291;0.31523;0.33106;0.35378;0.38518;0.42518;0.47426;0.53089;0.58642;0.63951;0.68515;0.71896;0.74465;0.76014;0.76939;0.77622;0.77904;0.77897;0.77734;0.77104;0.76387;0.7551;0.74732;0.73766;0.7306;0.72213;0.71114;0.70555;0.70024;0.69574;0.69237;0.68941;0.68654;0.68408;0.68257;0.67774;0.6736;0.66752;0.6598;0.64956;0.63986;0.63001;0.61841;0.60716;0.59629;0.58658;0.5774;0.56663;0.55835;0.55039;0.54517
0.0752;0.0744;0.07429;0.07464;0.07589;0.07944;0.08409;0.0896;0.09609;0.10197;0.10584;0.10825;0.109;0.1091;0.10861;0.1078;0.10747;0.1059;0.10422;0.10288;0.102;0.10158;0.10045;0.09969;0.0987;0.09801;0.09741;0.0974;0.09719;0.09722;0.09808;0.0986;0.09929;0.1016;0.10452;0.11002;0.11845;0.13012;0.14399;0.15896;0.17319;0.18626;0.19892;0.21037;0.22164;0.23237;0.23855;0.24273;0.2422;0.23796;0.23084;0.22252;0.21483;0.20923;0.20446;0.20124;0.19909;0.198;0.19726;0.19578;0.19509;0.19358;0.19156;0.19043;0.19114;0.19174;0.19437;0.19906;0.20596;0.21367;0.22419;0.23668;0.25213;0.26787;0.28391;0.29893;0.31184;0.32584;0.33893;0.35651;0.38025;0.41416;0.45637;0.50868;0.56793;0.62763;0.68258;0.73104;0.767;0.79558;0.81101;0.82195;0.82803;0.83113;0.83177;0.83044;0.82355;0.8171;0.8088;0.80077;0.79165;0.78296;0.7751;0.76465;0.75678;0.75182;0.74631;0.74264;0.74031;0.7365;0.73454;0.73211;0.72742;0.7227;0.71533;0.70847;0.69774;0.68774;0.67649;0.66349;0.65082;0.63985;0.62802;0.61826;0.60777;0.59847;0.58881;0.58302
0.00876;0.00776;0.00781;0.00797;0.00959;0.01273;0.01734;0.02239;0.02836;0.03378;0.03693;0.0397;0.04053;0.04052;0.0403;0.03979;0.03908;0.03802;0.0366;0.03544;0.03464;0.03386;0.03309;0.03229;0.03141;0.03079;0.03029;0.03047;0.0302;0.03038;0.031;0.03141;0.03239;0.0347;0.03745;0.04243;0.05086;0.06186;0.07501;0.08926;0.10286;0.1149;0.12666;0.13767;0.14857;0.15852;0.16497;0.16822;0.1679;0.16403;0.15748;0.14959;0.14231;0.13692;0.13249;0.12949;0.12746;0.12664;0.12568;0.12498;0.12408;0.12253;0.1209;0.12009;0.12031;0.12126;0.12392;0.12819;0.13483;0.14223;0.15224;0.16425;0.17907;0.1941;0.209;0.22332;0.23568;0.24921;0.26191;0.27883;0.30226;0.33496;0.37623;0.42612;0.48297;0.54047;0.59404;0.63952;0.67381;0.70056;0.71568;0.72559;0.73147;0.73506;0.73521;0.73443;0.72842;0.72242;0.71432;0.70649;0.69694;0.68881;0.68213;0.67164;0.66489;0.6597;0.65469;0.65142;0.64748;0.64642;0.64282;0.6417;0.63699;0.63363;0.62651;0.61808;0.60778;0.59896;0.58774;0.57607;0.56316;0.5519;0.54179;0.53275;0.52116;0.51288;0.50419;0.49863
-0.06537;-0.06538;-0.06582;-0.06524;-0.06354;-0.06077;-0.05648;-0.05182;-0.04649;-0.04191;-0.03832;-0.0361;-0.03503;-0.03482;-0.03496;-0.03547;-0.03585;-0.03655;-0.03752;-0.03834;-0.03925;-0.03973;-0.0403;-0.04096;-0.04172;-0.04212;-0.04213;-0.04202;-0.04203;-0.04196;-0.04131;-0.04037;-0.03941;-0.03766;-0.03488;-0.03011;-0.02278;-0.01284;-9e-04;0.01177;0.02382;0.03517;0.04588;0.05565;0.06554;0.07474;0.08041;0.08402;0.08392;0.08049;0.07457;0.06762;0.06138;0.05632;0.05264;0.04997;0.04839;0.04771;0.047;0.04634;0.04559;0.04414;0.04288;0.04213;0.04251;0.04353;0.04569;0.04999;0.05564;0.06257;0.07176;0.0834;0.09651;0.1104;0.1244;0.13802;0.14946;0.16194;0.17355;0.18912;0.21165;0.2425;0.28164;0.33044;0.38581;0.44351;0.49661;0.5439;0.57919;0.6056;0.62226;0.63227;0.63859;0.64233;0.64261;0.64165;0.63536;0.62868;0.62025;0.61258;0.60277;0.59521;0.58703;0.57748;0.57043;0.56551;0.56056;0.55721;0.55448;0.55268;0.55093;0.54756;0.54409;0.53929;0.53282;0.52542;0.51523;0.50561;0.49435;0.48266;0.46991;0.45861;0.4484;0.43873;0.42875;0.41985;0.41118;0.40527
-0.05896;-0.05929;-0.05918;-0.05891;-0.0574;-0.05462;-0.05034;-0.04597;-0.04101;-0.03654;-0.03315;-0.03108;-0.03018;-0.02989;-0.03005;-0.03028;-0.03059;-0.03134;-0.03239;-0.0332;-0.03373;-0.034;-0.0347;-0.03516;-0.03568;-0.03603;-0.03621;-0.03606;-0.03594;-0.03575;-0.03481;-0.03415;-0.03341;-0.03164;-0.02896;-0.02452;-0.01772;-0.00848;0.00255;0.01421;0.02536;0.03582;0.04552;0.05449;0.06382;0.07197;0.07748;0.08075;0.0804;0.07732;0.07194;0.06536;0.05986;0.05506;0.05189;0.04933;0.04787;0.0471;0.04663;0.0459;0.0453;0.0443;0.04289;0.04235;0.04293;0.04355;0.04574;0.04953;0.05506;0.06145;0.06963;0.07993;0.09234;0.10477;0.11773;0.12984;0.14027;0.15141;0.16214;0.17637;0.19696;0.2248;0.26072;0.30553;0.35706;0.40992;0.46113;0.50577;0.54119;0.56669;0.58245;0.59184;0.59828;0.60177;0.60252;0.60183;0.59513;0.58878;0.58059;0.5727;0.56334;0.55517;0.54839;0.53907;0.53164;0.52648;0.52228;0.51838;0.51685;0.51424;0.51166;0.50986;0.50557;0.50144;0.49497;0.48805;0.4791;0.46889;0.45857;0.44761;0.4358;0.42527;0.41521;0.40599;0.39628;0.38857;0.38123;0.37579
-0.02456;-0.02507;-0.02464;-0.024;-0.02227;-0.01949;-0.01571;-0.01127;-0.00661;-0.00215;0.0011;0.00315;0.00392;0.00413;0.00421;0.00402;0.0036;0.0028;0.00197;0.00128;0.00091;0.00052;0;-0.00042;-0.00083;-0.00081;-0.001;-0.00083;-0.00061;-0.00047;0.00064;0.00139;0.00228;0.00417;0.0067;0.01151;0.01866;0.02792;0.03879;0.05059;0.06174;0.07248;0.08189;0.09088;0.09978;0.10774;0.11277;0.11617;0.11608;0.11288;0.10751;0.10098;0.09501;0.09073;0.08741;0.085;0.08335;0.08254;0.082;0.08161;0.08082;0.07982;0.07886;0.07856;0.07909;0.07995;0.0827;0.08644;0.09186;0.09846;0.10728;0.11747;0.12974;0.14251;0.1552;0.16762;0.17803;0.18967;0.20141;0.21635;0.2383;0.2673;0.3045;0.35007;0.40052;0.45175;0.49936;0.54067;0.57178;0.59541;0.60953;0.61841;0.62433;0.62738;0.62827;0.62712;0.62112;0.61698;0.60897;0.60145;0.59334;0.58569;0.57902;0.56922;0.56281;0.55824;0.55324;0.54941;0.54616;0.54293;0.54076;0.53826;0.53441;0.53062;0.52416;0.51792;0.50954;0.50007;0.49166;0.48123;0.47048;0.46154;0.45284;0.44356;0.43447;0.42794;0.42117;0.41659
-0.07759;-0.07776;-0.0775;-0.07656;-0.07508;-0.07181;-0.06734;-0.06238;-0.05726;-0.05225;-0.04906;-0.04668;-0.04566;-0.04552;-0.04548;-0.04559;-0.04603;-0.04674;-0.04819;-0.04862;-0.04944;-0.05008;-0.05052;-0.05111;-0.05154;-0.05169;-0.05184;-0.0517;-0.05161;-0.05139;-0.05053;-0.04953;-0.04836;-0.04666;-0.04372;-0.03829;-0.03028;-0.02032;-0.00823;0.00492;0.01749;0.02946;0.0401;0.05012;0.06044;0.06916;0.07467;0.07796;0.07746;0.07372;0.0677;0.06041;0.05436;0.04958;0.04569;0.04311;0.04144;0.04055;0.03984;0.03922;0.03856;0.03756;0.03631;0.03582;0.03612;0.03734;0.04003;0.04435;0.05046;0.05794;0.0676;0.07933;0.09286;0.10717;0.12145;0.1351;0.14723;0.15978;0.17261;0.18956;0.21351;0.24662;0.28839;0.33955;0.39658;0.45398;0.50754;0.55411;0.58953;0.61566;0.63185;0.64237;0.64916;0.65311;0.65461;0.6523;0.64553;0.6405;0.63204;0.62428;0.61425;0.60553;0.59846;0.58742;0.57988;0.57466;0.56818;0.56416;0.56041;0.55736;0.55502;0.55216;0.54732;0.54265;0.5369;0.52794;0.51848;0.50825;0.49759;0.48526;0.4734;0.46198;0.45224;0.44214;0.43171;0.42368;0.41546;0.41046
-0.09726;-0.09703;-0.09628;-0.09591;-0.09387;-0.09125;-0.08718;-0.08278;-0.07792;-0.07359;-0.07043;-0.06847;-0.06717;-0.06678;-0.06656;-0.06655;-0.0669;-0.06702;-0.06796;-0.06808;-0.06885;-0.06894;-0.0692;-0.06993;-0.06997;-0.06987;-0.06992;-0.06967;-0.06931;-0.06908;-0.06815;-0.06676;-0.0658;-0.06418;-0.06131;-0.05675;-0.04974;-0.04146;-0.03119;-0.02033;-0.00961;0.00059;0.00982;0.01842;0.02739;0.03496;0.03965;0.04266;0.0425;0.03969;0.03471;0.02879;0.02371;0.01955;0.01657;0.0145;0.01323;0.01272;0.01212;0.01188;0.01147;0.01038;0.00951;0.00912;0.00949;0.01048;0.01291;0.01645;0.02196;0.02822;0.03706;0.04652;0.05831;0.07054;0.08263;0.09409;0.1043;0.11519;0.12613;0.14032;0.16082;0.18857;0.22361;0.26659;0.31487;0.36432;0.4099;0.4507;0.4817;0.50516;0.51938;0.52882;0.53459;0.53866;0.53924;0.53741;0.5324;0.5272;0.51952;0.51199;0.50363;0.49571;0.48931;0.48034;0.47481;0.46983;0.46545;0.46198;0.4596;0.45685;0.45476;0.4524;0.44964;0.44507;0.43935;0.43246;0.42445;0.4157;0.40666;0.39551;0.38561;0.37608;0.36717;0.35811;0.34936;0.34237;0.33566;0.33107
0.03924;0.03874;0.03875;0.03936;0.04096;0.04441;0.04907;0.05366;0.05942;0.06461;0.06788;0.07032;0.07135;0.07108;0.07112;0.07117;0.07042;0.06966;0.06853;0.06744;0.06665;0.06613;0.06515;0.06445;0.06395;0.06363;0.06318;0.06321;0.06364;0.06388;0.06448;0.06531;0.06615;0.06841;0.0713;0.077;0.08511;0.09626;0.10922;0.12292;0.13652;0.14868;0.15968;0.17016;0.18049;0.19029;0.19587;0.19939;0.19909;0.19511;0.18863;0.18081;0.17386;0.16881;0.16474;0.16188;0.15998;0.1591;0.15835;0.15756;0.15688;0.15567;0.15406;0.15356;0.15414;0.15514;0.15827;0.1625;0.16914;0.17664;0.18661;0.19846;0.21279;0.2272;0.24205;0.25608;0.26782;0.28124;0.29419;0.31176;0.3359;0.36855;0.41014;0.46096;0.51748;0.57336;0.62599;0.67064;0.70441;0.72988;0.74481;0.75591;0.76194;0.76558;0.76697;0.7647;0.75876;0.75289;0.74489;0.73724;0.72594;0.71849;0.71141;0.70051;0.69396;0.68913;0.68374;0.67929;0.67639;0.67242;0.66983;0.66748;0.66357;0.65855;0.65233;0.64474;0.63526;0.62516;0.6145;0.60342;0.5908;0.58113;0.57111;0.56064;0.55094;0.54259;0.53561;0.53109
-0.0673;-0.06746;-0.06774;-0.06753;-0.06599;-0.06316;-0.05883;-0.05404;-0.04879;-0.04431;-0.04076;-0.03921;-0.03794;-0.03804;-0.03844;-0.0389;-0.03974;-0.04043;-0.04178;-0.04264;-0.04367;-0.0444;-0.04498;-0.04592;-0.04659;-0.04682;-0.04718;-0.04717;-0.0471;-0.04704;-0.0462;-0.04504;-0.04418;-0.04219;-0.03933;-0.03389;-0.02548;-0.01501;-0.00216;0.01138;0.02472;0.03687;0.04795;0.05831;0.06894;0.07842;0.084;0.0877;0.08755;0.08378;0.07717;0.06926;0.06222;0.05693;0.05294;0.05021;0.04821;0.04711;0.04632;0.0459;0.04486;0.04371;0.04245;0.04183;0.042;0.04327;0.04627;0.05048;0.05661;0.06478;0.07526;0.0871;0.10152;0.11627;0.13096;0.14557;0.15791;0.17094;0.18388;0.20177;0.22723;0.26104;0.30391;0.3564;0.41477;0.47268;0.52638;0.57214;0.60648;0.63274;0.64856;0.65907;0.66489;0.66807;0.66872;0.66686;0.6611;0.65475;0.6474;0.6393;0.62933;0.62072;0.61198;0.60319;0.5949;0.58969;0.5843;0.57996;0.5765;0.57371;0.57066;0.56768;0.56386;0.55969;0.5526;0.5456;0.53603;0.52561;0.51384;0.50176;0.49043;0.47908;0.46913;0.45884;0.44899;0.44061;0.43322;0.42782
-0.00902;-0.00884;-0.009;-0.00854;-0.007;-0.00464;-0.00022;0.00415;0.00939;0.01384;0.01717;0.0188;0.01961;0.02027;0.02008;0.01943;0.0189;0.0181;0.01692;0.01595;0.01544;0.01468;0.01353;0.01329;0.01261;0.0121;0.01193;0.01184;0.01197;0.01225;0.01291;0.0135;0.01486;0.01653;0.01913;0.02447;0.03194;0.04203;0.05349;0.06584;0.07806;0.08924;0.0993;0.10868;0.11846;0.12716;0.13196;0.13492;0.13436;0.13105;0.12518;0.119;0.11264;0.10839;0.1046;0.10187;0.10034;0.09952;0.09879;0.09827;0.09771;0.09683;0.09555;0.09476;0.09599;0.09657;0.09962;0.10329;0.10941;0.1164;0.12544;0.13637;0.14914;0.16233;0.17569;0.18868;0.19911;0.21117;0.22299;0.23896;0.26091;0.29124;0.32829;0.37416;0.42546;0.47706;0.52527;0.56625;0.59798;0.62178;0.63577;0.64443;0.64944;0.65472;0.65339;0.65303;0.64629;0.64108;0.63328;0.62565;0.6173;0.6093;0.60203;0.59493;0.58738;0.58082;0.57775;0.57373;0.57083;0.56759;0.56603;0.56276;0.55947;0.55495;0.5503;0.54318;0.53465;0.52568;0.51568;0.50518;0.49388;0.48438;0.47464;0.46562;0.45702;0.44982;0.44261;0.43659
-0.01528;-0.01461;-0.01566;-0.01467;-0.01282;-0.0098;-0.00479;0.00043;0.00675;0.01224;0.01594;0.01828;0.0189;0.01955;0.01929;0.01868;0.01776;0.01636;0.01527;0.01412;0.01299;0.01183;0.01088;0.01009;0.00912;0.00865;0.00851;0.00802;0.00807;0.00851;0.00889;0.00954;0.01051;0.01243;0.01518;0.02095;0.02966;0.04124;0.05456;0.06879;0.08285;0.09567;0.10748;0.11885;0.13008;0.14005;0.14604;0.14931;0.14833;0.144;0.13738;0.12959;0.12256;0.11724;0.1131;0.10976;0.10789;0.107;0.10629;0.10543;0.10435;0.10311;0.10167;0.10089;0.10163;0.10253;0.10555;0.1097;0.11641;0.1245;0.1351;0.14823;0.16284;0.17772;0.19375;0.20782;0.22079;0.23413;0.24742;0.26608;0.29106;0.32611;0.36897;0.42205;0.48115;0.53979;0.5951;0.64225;0.67873;0.70538;0.72118;0.73051;0.7376;0.74122;0.74219;0.74213;0.73337;0.72805;0.71965;0.71078;0.7015;0.69165;0.68396;0.67481;0.66689;0.6617;0.65663;0.65134;0.64868;0.64493;0.6434;0.63992;0.63479;0.63038;0.62442;0.61632;0.60592;0.59611;0.58477;0.57292;0.55926;0.54829;0.53681;0.52559;0.51572;0.5064;0.49746;0.49079
0.00811;0.00796;0.00761;0.00776;0.00889;0.01134;0.0152;0.01942;0.02386;0.02814;0.03118;0.03322;0.03356;0.03404;0.03355;0.03334;0.03254;0.03187;0.03062;0.02975;0.02899;0.0283;0.02735;0.02711;0.02644;0.02594;0.02582;0.02552;0.02588;0.02614;0.02653;0.02737;0.02843;0.02972;0.03241;0.03748;0.04441;0.05397;0.06488;0.07686;0.08828;0.0988;0.10822;0.11735;0.12646;0.1345;0.13911;0.14181;0.14164;0.13811;0.1332;0.12705;0.12101;0.11715;0.11351;0.1107;0.10882;0.10811;0.10757;0.10673;0.10605;0.10506;0.1037;0.103;0.10412;0.10481;0.10744;0.1109;0.11678;0.12329;0.13225;0.14238;0.15446;0.16707;0.17985;0.192;0.20239;0.21381;0.22477;0.2403;0.26102;0.28992;0.32568;0.37006;0.41945;0.46959;0.51625;0.55667;0.58786;0.61001;0.6246;0.63295;0.63854;0.64286;0.64263;0.64168;0.63543;0.62992;0.62278;0.61458;0.60664;0.59927;0.59191;0.58357;0.5769;0.57054;0.56683;0.56289;0.5596;0.55695;0.55513;0.55215;0.54745;0.54446;0.53942;0.53207;0.52401;0.51538;0.50546;0.49596;0.48447;0.47492;0.4661;0.4572;0.44898;0.44217;0.43501;0.42998
-0.03832;-0.03812;-0.03823;-0.03791;-0.0357;-0.03221;-0.02738;-0.02198;-0.01578;-0.00998;-0.00645;-0.0039;-0.00293;-0.00232;-0.00291;-0.0032;-0.00414;-0.00537;-0.00655;-0.00761;-0.00867;-0.00978;-0.01073;-0.01132;-0.01227;-0.01279;-0.01304;-0.01328;-0.01331;-0.01303;-0.01257;-0.0117;-0.01082;-0.00886;-0.00615;0.00019;0.00895;0.02068;0.03407;0.0488;0.06283;0.07588;0.08815;0.09944;0.11105;0.12106;0.12732;0.13085;0.12977;0.12552;0.11849;0.11066;0.10347;0.09783;0.09399;0.09074;0.089;0.08811;0.08729;0.08652;0.08546;0.08435;0.08288;0.08193;0.08281;0.08395;0.0871;0.09088;0.0982;0.1064;0.11742;0.13056;0.14513;0.16064;0.17697;0.19155;0.2049;0.21881;0.23244;0.25159;0.27739;0.31398;0.35883;0.41347;0.47545;0.5373;0.59447;0.64359;0.68203;0.70915;0.7269;0.73588;0.74367;0.74845;0.74799;0.74706;0.73993;0.73313;0.72392;0.71546;0.70621;0.69615;0.68779;0.67867;0.67049;0.66361;0.65892;0.65354;0.65011;0.64643;0.64454;0.64076;0.63722;0.63145;0.62593;0.61723;0.60592;0.59553;0.58298;0.57054;0.55803;0.54534;0.53337;0.52266;0.51113;0.50193;0.49303;0.48557
-0.01339;-0.01392;-0.01494;-0.01503;-0.01394;-0.01114;-0.00687;-0.00203;0.00344;0.0086;0.01179;0.01389;0.0144;0.01459;0.01386;0.01295;0.01182;0.01066;0.00889;0.00726;0.00603;0.00501;0.00375;0.00293;0.00201;0.0012;0.00092;0.00049;0.00044;0.00085;0.00114;0.00175;0.00289;0.00457;0.00755;0.01347;0.02216;0.03372;0.04709;0.06156;0.07572;0.08879;0.10052;0.11175;0.12325;0.1331;0.13923;0.1426;0.14202;0.13782;0.13072;0.12274;0.11516;0.1099;0.10529;0.10203;0.09997;0.09896;0.09816;0.09721;0.09623;0.09509;0.09328;0.09275;0.09355;0.09416;0.09731;0.10153;0.10848;0.11685;0.12788;0.14063;0.15565;0.17118;0.18697;0.20218;0.21498;0.22897;0.24278;0.26159;0.28753;0.32352;0.36792;0.42232;0.48268;0.54376;0.59933;0.64721;0.68409;0.71089;0.72722;0.73734;0.74383;0.7487;0.74783;0.7474;0.7412;0.73371;0.72614;0.7157;0.70669;0.69702;0.68865;0.67999;0.67149;0.66492;0.66015;0.6553;0.65209;0.6484;0.64621;0.64259;0.63875;0.63275;0.62829;0.61836;0.60922;0.59773;0.58671;0.57426;0.56179;0.55071;0.53927;0.52829;0.51839;0.50967;0.5014;0.49408
-0.03265;-0.03382;-0.0344;-0.03402;-0.03304;-0.0307;-0.02737;-0.02261;-0.018;-0.01362;-0.01062;-0.00889;-0.00827;-0.00844;-0.00861;-0.00914;-0.01019;-0.01157;-0.01267;-0.0138;-0.01457;-0.01528;-0.01609;-0.017;-0.01789;-0.01839;-0.01891;-0.01915;-0.01901;-0.01898;-0.01863;-0.0177;-0.01683;-0.01505;-0.01207;-0.00648;0.00132;0.01154;0.02295;0.03562;0.04833;0.05994;0.07059;0.08054;0.09036;0.09899;0.10402;0.10674;0.10619;0.10211;0.09576;0.08843;0.08182;0.07721;0.0729;0.07034;0.06869;0.06758;0.06703;0.06707;0.06612;0.06459;0.0631;0.0626;0.06298;0.06421;0.06671;0.07137;0.07688;0.08404;0.09321;0.10444;0.1177;0.13172;0.14584;0.15836;0.17049;0.18221;0.19492;0.21141;0.23455;0.26567;0.30446;0.35274;0.40707;0.46146;0.51239;0.55607;0.59038;0.61533;0.6309;0.64085;0.64696;0.65218;0.65208;0.65026;0.64478;0.64005;0.63345;0.62434;0.61619;0.60835;0.6;0.59173;0.58543;0.579;0.57362;0.56923;0.56595;0.56193;0.55967;0.55726;0.55276;0.54989;0.54407;0.53553;0.52597;0.51641;0.50493;0.49448;0.48281;0.4722;0.46184;0.45335;0.443;0.43505;0.42718;0.42218
-0.03906;-0.03977;-0.03962;-0.03883;-0.03738;-0.03399;-0.03037;-0.02551;-0.02037;-0.01568;-0.01195;-0.01015;-0.00905;-0.00899;-0.00891;-0.00912;-0.00978;-0.01086;-0.01189;-0.01264;-0.01337;-0.01383;-0.01449;-0.01539;-0.01604;-0.01639;-0.01678;-0.01709;-0.01701;-0.01651;-0.01632;-0.01533;-0.01453;-0.01271;-0.01;-0.00455;0.0034;0.01332;0.02485;0.03726;0.05008;0.06201;0.07268;0.08289;0.09274;0.10152;0.10662;0.1096;0.10872;0.10457;0.09834;0.09121;0.0846;0.0799;0.07599;0.07339;0.0718;0.07093;0.07024;0.07003;0.06918;0.06777;0.06607;0.06583;0.06604;0.06688;0.0697;0.07404;0.07952;0.08682;0.09632;0.10797;0.12099;0.13487;0.14884;0.16202;0.17449;0.18597;0.19881;0.21495;0.23826;0.26983;0.30918;0.3585;0.41408;0.46963;0.52296;0.56817;0.60472;0.63067;0.64792;0.65969;0.66657;0.67083;0.67166;0.66969;0.66404;0.65983;0.65217;0.64346;0.6347;0.62615;0.61867;0.6094;0.60256;0.5958;0.59073;0.58591;0.58217;0.57951;0.57654;0.57349;0.57026;0.56649;0.55971;0.55109;0.5413;0.53187;0.52111;0.50895;0.49647;0.48582;0.4741;0.46477;0.45388;0.44553;0.43773;0.43169
-0.05907;-0.05969;-0.0594;-0.05851;-0.05691;-0.05377;-0.04989;-0.04501;-0.0398;-0.0352;-0.03144;-0.02944;-0.02841;-0.0282;-0.02788;-0.02821;-0.02875;-0.02986;-0.03083;-0.03159;-0.03215;-0.03277;-0.03354;-0.03409;-0.03483;-0.03531;-0.03576;-0.03579;-0.03569;-0.03531;-0.03489;-0.03399;-0.03281;-0.03139;-0.02863;-0.02299;-0.01483;-0.00468;0.007;0.01977;0.03263;0.04435;0.05538;0.06566;0.07591;0.08504;0.09046;0.09301;0.09208;0.08774;0.08149;0.07431;0.06782;0.06305;0.05886;0.05651;0.05494;0.05404;0.05355;0.05341;0.05259;0.05135;0.04995;0.04945;0.04978;0.05077;0.0537;0.05802;0.06362;0.07138;0.08067;0.09228;0.10565;0.11975;0.13401;0.14748;0.1596;0.17184;0.18461;0.20149;0.22526;0.25781;0.29871;0.34963;0.40639;0.4642;0.51881;0.56614;0.60454;0.63118;0.64906;0.65996;0.66826;0.67248;0.67427;0.67239;0.66666;0.66185;0.65302;0.64458;0.63609;0.62684;0.6199;0.61034;0.60283;0.597;0.59119;0.58664;0.58383;0.58003;0.57793;0.57475;0.57119;0.56696;0.55997;0.55096;0.5413;0.53129;0.51966;0.50796;0.4946;0.48227;0.47059;0.46118;0.44986;0.44172;0.43343;0.42656
0.04742;0.04633;0.04619;0.04721;0.04853;0.0517;0.05589;0.06125;0.06663;0.07145;0.07534;0.0776;0.07828;0.07858;0.0786;0.07827;0.07776;0.07653;0.07528;0.07426;0.07324;0.07264;0.07156;0.07073;0.06993;0.06937;0.06863;0.06869;0.0688;0.06921;0.06969;0.07034;0.07135;0.07333;0.07611;0.08231;0.09068;0.10173;0.11439;0.12834;0.14239;0.15516;0.16681;0.17816;0.18892;0.19857;0.20371;0.20657;0.20566;0.20066;0.19368;0.18561;0.17842;0.17345;0.16875;0.16604;0.16404;0.16323;0.16249;0.162;0.1613;0.15964;0.15829;0.15768;0.15794;0.15868;0.16142;0.16626;0.17231;0.18019;0.19005;0.2027;0.21665;0.23144;0.24654;0.26065;0.27331;0.28679;0.29979;0.31742;0.34211;0.37538;0.41677;0.46711;0.52354;0.57944;0.63119;0.67508;0.71009;0.73429;0.75001;0.76067;0.7679;0.77353;0.77465;0.77257;0.76767;0.76325;0.75655;0.74798;0.73942;0.73276;0.72524;0.71547;0.70808;0.70313;0.69745;0.69257;0.68923;0.68617;0.68285;0.68012;0.67578;0.67266;0.66735;0.658;0.64787;0.63811;0.62783;0.61623;0.60466;0.59353;0.58263;0.57283;0.56302;0.55505;0.54666;0.54157
-0.01962;-0.0201;-0.02013;-0.0189;-0.01763;-0.01401;-0.00948;-0.00392;0.00169;0.00672;0.01068;0.01299;0.01428;0.01428;0.01436;0.01456;0.01336;0.01241;0.01133;0.01054;0.00962;0.00908;0.00804;0.00719;0.00649;0.00579;0.00552;0.00525;0.00544;0.00576;0.00617;0.00706;0.0081;0.00993;0.013;0.01919;0.0278;0.0388;0.05161;0.06552;0.07924;0.09209;0.10357;0.11448;0.12527;0.13452;0.14;0.14322;0.14216;0.13769;0.13112;0.12382;0.11651;0.11167;0.10727;0.10466;0.10293;0.10181;0.1012;0.1009;0.10017;0.09847;0.09702;0.09645;0.09672;0.09783;0.10072;0.10521;0.11126;0.11897;0.12906;0.14146;0.15537;0.16964;0.18459;0.1978;0.21044;0.2227;0.23588;0.25248;0.27623;0.30769;0.34655;0.3946;0.44756;0.4996;0.54886;0.59156;0.62468;0.64696;0.66258;0.673;0.67906;0.68447;0.68525;0.68314;0.67915;0.6741;0.66766;0.66061;0.65231;0.64528;0.63818;0.62957;0.62383;0.61823;0.61328;0.60896;0.60609;0.60316;0.60097;0.5987;0.595;0.59169;0.58624;0.57825;0.56896;0.56033;0.5499;0.53941;0.52824;0.51816;0.50763;0.499;0.48919;0.4814;0.47462;0.46884
-0.00201;-0.00161;-0.00182;-0.00121;-0.00011;0.00266;0.0066;0.01104;0.01609;0.02022;0.02328;0.02549;0.0259;0.02645;0.02602;0.02556;0.02497;0.02403;0.02276;0.02202;0.0212;0.02053;0.01986;0.01946;0.01884;0.01866;0.01828;0.01814;0.01808;0.01813;0.01862;0.01901;0.02013;0.0214;0.02389;0.02841;0.0349;0.04435;0.05532;0.06716;0.07885;0.08922;0.09905;0.10821;0.11765;0.1264;0.13158;0.13505;0.13465;0.13154;0.12574;0.11944;0.11281;0.10854;0.10436;0.10149;0.10009;0.09946;0.09876;0.09808;0.09708;0.09616;0.09467;0.09382;0.09461;0.09562;0.0978;0.10172;0.1071;0.11387;0.12256;0.13292;0.14581;0.15839;0.17229;0.18428;0.19561;0.20743;0.21869;0.23447;0.25627;0.28622;0.32449;0.37159;0.42535;0.4795;0.53172;0.57615;0.6105;0.63611;0.65154;0.66108;0.66591;0.67096;0.67048;0.66895;0.66165;0.65575;0.6481;0.63939;0.63084;0.62203;0.6145;0.60573;0.59805;0.59264;0.5883;0.584;0.58217;0.58019;0.57811;0.57462;0.57084;0.56674;0.56211;0.55334;0.54386;0.53412;0.52327;0.51191;0.50044;0.48799;0.47793;0.46819;0.45861;0.45045;0.44232;0.4363
0.02662;0.02701;0.02649;0.02699;0.02773;0.03025;0.03344;0.0373;0.04192;0.04581;0.04844;0.05035;0.05065;0.0513;0.05097;0.05068;0.05004;0.04906;0.04852;0.04762;0.04706;0.0466;0.04571;0.04556;0.04501;0.04464;0.04448;0.04462;0.04454;0.04496;0.04545;0.04603;0.04703;0.04829;0.05058;0.05514;0.06097;0.06999;0.07952;0.09073;0.10137;0.11103;0.11974;0.12824;0.13679;0.1445;0.14952;0.15255;0.15218;0.14945;0.1445;0.13838;0.1329;0.12885;0.12554;0.12312;0.12159;0.12085;0.12062;0.11988;0.11913;0.11836;0.11719;0.11648;0.11728;0.11802;0.1204;0.12337;0.12906;0.13486;0.14284;0.15218;0.16353;0.17506;0.18728;0.19826;0.20833;0.21916;0.22949;0.24345;0.26269;0.2895;0.32269;0.36472;0.41173;0.46007;0.50541;0.5453;0.57492;0.59767;0.612;0.62096;0.62602;0.62965;0.63019;0.62886;0.62256;0.6191;0.61094;0.60422;0.59612;0.58898;0.58178;0.57482;0.56782;0.56305;0.55909;0.55503;0.55354;0.55084;0.55028;0.5474;0.54325;0.54024;0.53645;0.52966;0.52124;0.51259;0.50331;0.49384;0.48321;0.47373;0.4648;0.45675;0.44787;0.44132;0.43455;0.42902
0.04358;0.04305;0.04182;0.04174;0.0425;0.04462;0.04839;0.0524;0.05725;0.06144;0.06436;0.0662;0.06669;0.06641;0.06569;0.06509;0.06415;0.06278;0.06143;0.06017;0.05928;0.0583;0.05707;0.0565;0.05562;0.05505;0.0546;0.05441;0.05411;0.0541;0.05462;0.05498;0.05605;0.05772;0.06029;0.06553;0.07276;0.08309;0.09516;0.10841;0.12122;0.1331;0.14326;0.15336;0.16398;0.17353;0.17948;0.1832;0.183;0.17897;0.17242;0.16481;0.15731;0.15203;0.14744;0.14419;0.14235;0.14104;0.14031;0.13959;0.13862;0.13732;0.1356;0.13472;0.13556;0.13629;0.13907;0.14268;0.14874;0.156;0.16572;0.17699;0.1907;0.20476;0.21915;0.23276;0.24478;0.25773;0.27004;0.28786;0.31105;0.34305;0.38328;0.43334;0.49013;0.54696;0.60072;0.6474;0.68309;0.70983;0.72595;0.7354;0.74169;0.74594;0.74588;0.74552;0.73714;0.73046;0.72301;0.71319;0.70437;0.69623;0.68763;0.67867;0.67065;0.66507;0.65992;0.65607;0.65301;0.65015;0.64858;0.6452;0.64082;0.63567;0.63165;0.62284;0.61277;0.60336;0.59244;0.58022;0.56871;0.55759;0.54641;0.53761;0.5275;0.52004;0.51134;0.50621
0.06538;0.06498;0.06469;0.06514;0.06617;0.06919;0.07349;0.07849;0.08396;0.08896;0.09202;0.09431;0.09458;0.09508;0.09454;0.09377;0.09275;0.09138;0.09027;0.08905;0.08801;0.08708;0.086;0.08553;0.08464;0.08403;0.08371;0.08353;0.08329;0.08354;0.08374;0.08423;0.08553;0.08679;0.08942;0.09447;0.10214;0.11302;0.12544;0.13924;0.15243;0.1644;0.17502;0.1857;0.19656;0.20622;0.21247;0.21626;0.21591;0.21204;0.20534;0.19745;0.19012;0.18461;0.18016;0.17682;0.17503;0.17387;0.17334;0.1722;0.17093;0.16974;0.16815;0.16733;0.16817;0.16869;0.17154;0.17507;0.18167;0.18907;0.19899;0.21069;0.22491;0.23945;0.25451;0.26812;0.28033;0.29428;0.30649;0.32374;0.34714;0.38061;0.42165;0.47246;0.53042;0.58764;0.64114;0.6871;0.72257;0.74729;0.76489;0.77335;0.77964;0.78389;0.78418;0.78221;0.77523;0.76897;0.76094;0.75156;0.7432;0.73257;0.72485;0.71729;0.70949;0.70335;0.69852;0.69429;0.69199;0.68879;0.68686;0.68417;0.67925;0.67514;0.66984;0.66105;0.6511;0.64148;0.63018;0.61908;0.60651;0.59512;0.58336;0.57331;0.56336;0.55564;0.5462;0.54034
0.05447;0.05442;0.05359;0.05367;0.05509;0.05754;0.0622;0.06674;0.07224;0.07725;0.08061;0.0827;0.08321;0.08339;0.08244;0.08202;0.08096;0.07966;0.07836;0.07707;0.07587;0.07505;0.07383;0.07297;0.07232;0.07176;0.07126;0.07097;0.07067;0.07082;0.07119;0.07175;0.07272;0.07462;0.07718;0.08273;0.09039;0.10167;0.11408;0.1283;0.1416;0.15388;0.16474;0.17553;0.18625;0.19615;0.20236;0.2063;0.20599;0.20188;0.19549;0.18767;0.18035;0.17468;0.17026;0.16692;0.16496;0.16387;0.16314;0.16224;0.1608;0.15956;0.158;0.15698;0.15802;0.15877;0.16112;0.16512;0.17217;0.17936;0.1895;0.20158;0.2162;0.23073;0.24577;0.26012;0.27282;0.28591;0.29868;0.31636;0.34023;0.37408;0.41505;0.46601;0.52423;0.58115;0.63554;0.6804;0.71557;0.74131;0.75721;0.7668;0.77261;0.77587;0.77643;0.7744;0.76839;0.76104;0.75233;0.74266;0.73446;0.72521;0.71656;0.70891;0.70141;0.69536;0.69062;0.68575;0.68371;0.68054;0.67939;0.67618;0.67233;0.66612;0.6617;0.65304;0.64404;0.63421;0.62244;0.61156;0.59941;0.58763;0.57712;0.56758;0.55703;0.54861;0.54045;0.53407
-0.0101;-0.01014;-0.01068;-0.01013;-0.00931;-0.0068;-0.00314;0.00114;0.00606;0.01009;0.01295;0.01452;0.01505;0.01511;0.01521;0.01442;0.01361;0.01274;0.01215;0.01148;0.01024;0.00935;0.00887;0.00839;0.00786;0.0074;0.00675;0.00703;0.00701;0.00746;0.00817;0.00881;0.00979;0.01167;0.01435;0.01882;0.02644;0.03545;0.04615;0.05792;0.07018;0.08103;0.09057;0.10014;0.10899;0.11705;0.12188;0.12466;0.12487;0.12149;0.11567;0.10896;0.10236;0.09829;0.0944;0.09193;0.08996;0.08925;0.08852;0.08809;0.08709;0.08609;0.0847;0.08457;0.08465;0.08521;0.08814;0.09175;0.0973;0.1037;0.11231;0.12304;0.13523;0.14836;0.16137;0.17348;0.18458;0.1958;0.20728;0.22242;0.24394;0.27255;0.3083;0.35342;0.40365;0.45459;0.50155;0.54239;0.57409;0.5964;0.61085;0.61873;0.62635;0.62921;0.62926;0.62887;0.62294;0.61792;0.61257;0.60379;0.59468;0.58842;0.58103;0.57216;0.56526;0.55958;0.55462;0.55101;0.54673;0.54412;0.54119;0.53937;0.53607;0.53167;0.52701;0.51951;0.51145;0.50284;0.49373;0.48395;0.47375;0.46515;0.45539;0.4468;0.43827;0.43293;0.42657;0.42146
0.03066;0.03031;0.0307;0.03163;0.03305;0.03572;0.03996;0.04489;0.0504;0.05537;0.05865;0.06034;0.06137;0.06188;0.06177;0.06141;0.06062;0.05974;0.0591;0.05794;0.05741;0.05664;0.05591;0.05533;0.05488;0.05459;0.05395;0.05376;0.05411;0.05446;0.05509;0.0558;0.05676;0.05865;0.06138;0.06669;0.07454;0.08444;0.09595;0.10913;0.12181;0.13358;0.14432;0.15486;0.16418;0.17315;0.1782;0.1809;0.18072;0.1769;0.17076;0.16404;0.15734;0.15304;0.14887;0.14623;0.14439;0.14362;0.14332;0.14242;0.14155;0.14048;0.13898;0.13873;0.13899;0.13977;0.1428;0.1466;0.1526;0.16001;0.16884;0.17999;0.1934;0.20698;0.22102;0.23458;0.24637;0.25832;0.27044;0.28683;0.30955;0.34068;0.37892;0.42656;0.48074;0.53562;0.58603;0.63049;0.66501;0.6904;0.70558;0.71389;0.72185;0.72488;0.72517;0.72621;0.71993;0.71427;0.70837;0.70009;0.69005;0.68311;0.67488;0.6666;0.65883;0.65221;0.64727;0.644;0.64011;0.63643;0.63367;0.63148;0.62716;0.62407;0.6178;0.60913;0.60078;0.59003;0.58009;0.56854;0.55793;0.54806;0.53696;0.5275;0.51823;0.51109;0.50266;0.49693
-0.03045;-0.0304;-0.03056;-0.02953;-0.02794;-0.02464;-0.01973;-0.01444;-0.00823;-0.003;0.00073;0.00285;0.00381;0.00409;0.0044;0.00379;0.00303;0.00213;0.00117;0.00042;-0.00079;-0.00165;-0.00244;-0.00326;-0.00372;-0.0045;-0.00487;-0.00483;-0.0047;-0.00421;-0.00351;-0.00295;-0.00194;5e-05;0.00307;0.00837;0.01701;0.02798;0.04035;0.05396;0.06766;0.08053;0.09187;0.103;0.11353;0.12269;0.12854;0.13163;0.13099;0.12702;0.1205;0.11352;0.10619;0.10157;0.09745;0.09466;0.09305;0.09232;0.09167;0.09083;0.08984;0.08865;0.08737;0.08699;0.08725;0.08774;0.09097;0.09534;0.10153;0.1095;0.11935;0.13125;0.14539;0.15979;0.17464;0.18833;0.20053;0.21321;0.22585;0.24292;0.26636;0.29857;0.33855;0.38802;0.44398;0.49984;0.55209;0.59702;0.63297;0.65872;0.67456;0.68348;0.69111;0.69545;0.69392;0.69394;0.68732;0.68306;0.67539;0.66658;0.65734;0.64982;0.64176;0.6336;0.62631;0.62095;0.61542;0.61123;0.60848;0.60529;0.60263;0.59939;0.59604;0.59174;0.58555;0.57679;0.56816;0.55756;0.54721;0.53534;0.52361;0.51367;0.50149;0.49193;0.48166;0.47379;0.46544;0.4593
-0.04433;-0.04448;-0.04402;-0.04334;-0.04175;-0.03859;-0.03478;-0.02999;-0.02456;-0.01996;-0.01687;-0.01494;-0.01393;-0.01363;-0.01322;-0.01366;-0.01419;-0.01497;-0.01545;-0.01589;-0.01702;-0.01762;-0.01792;-0.01863;-0.01894;-0.01938;-0.01963;-0.0195;-0.01929;-0.01884;-0.01815;-0.0176;-0.01613;-0.0147;-0.01207;-0.00729;0.00046;0.00978;0.0205;0.03259;0.04463;0.05579;0.06579;0.07578;0.08546;0.09366;0.09845;0.10127;0.10092;0.09757;0.0917;0.08544;0.07906;0.07512;0.07155;0.06912;0.06768;0.06687;0.06658;0.06572;0.06529;0.06405;0.06293;0.06299;0.06312;0.06389;0.06666;0.07044;0.07605;0.08301;0.09197;0.10266;0.11529;0.12842;0.14205;0.15479;0.16595;0.17762;0.1892;0.20519;0.2273;0.25777;0.29618;0.34447;0.39934;0.455;0.50826;0.55461;0.59125;0.6172;0.63377;0.64309;0.65096;0.65538;0.65565;0.65505;0.64876;0.64348;0.63681;0.62714;0.61683;0.60931;0.60177;0.59265;0.58512;0.57899;0.57425;0.56956;0.56604;0.56338;0.56045;0.5578;0.55429;0.55013;0.54376;0.53495;0.52624;0.51507;0.5042;0.49225;0.48125;0.47026;0.45883;0.44873;0.43893;0.43084;0.42285;0.41649
-0.03032;-0.03081;-0.03077;-0.03006;-0.02879;-0.02562;-0.02125;-0.01638;-0.01083;-0.00596;-0.00278;-0.00097;-0.00019;0.00026;0.00013;-0.00032;-0.00083;-0.00196;-0.00271;-0.0037;-0.00459;-0.00535;-0.00619;-0.00696;-0.00736;-0.00785;-0.00823;-0.00842;-0.00808;-0.0075;-0.00696;-0.00653;-0.00534;-0.00373;-6e-04;0.0044;0.01269;0.02249;0.03436;0.04733;0.06027;0.07254;0.08351;0.09402;0.10395;0.11272;0.11835;0.12149;0.12129;0.11706;0.11067;0.10391;0.09705;0.09221;0.08815;0.08586;0.08395;0.08302;0.08258;0.08187;0.08121;0.07999;0.07844;0.0784;0.07857;0.07915;0.08232;0.08607;0.09245;0.09984;0.10919;0.12104;0.13479;0.14898;0.16352;0.17702;0.18914;0.2017;0.21432;0.23087;0.25456;0.28645;0.32678;0.37695;0.4334;0.4897;0.54293;0.58918;0.6246;0.65106;0.66695;0.67556;0.6838;0.68731;0.68742;0.6873;0.6805;0.67474;0.66783;0.66035;0.64977;0.64312;0.63472;0.6258;0.61822;0.61231;0.60734;0.60283;0.59942;0.59654;0.59453;0.5914;0.58797;0.58302;0.57743;0.56839;0.56012;0.54955;0.53825;0.52694;0.51467;0.50436;0.49212;0.48283;0.47294;0.46526;0.45645;0.45039
-0.05578;-0.05646;-0.05634;-0.05592;-0.0545;-0.05178;-0.04856;-0.04359;-0.03856;-0.03455;-0.03153;-0.02918;-0.02845;-0.02855;-0.0285;-0.02834;-0.02917;-0.03037;-0.03131;-0.03171;-0.03221;-0.03301;-0.03356;-0.03407;-0.03456;-0.03509;-0.03486;-0.03496;-0.03467;-0.03453;-0.03429;-0.03329;-0.03241;-0.03051;-0.02827;-0.02367;-0.017;-0.00755;0.00313;0.01464;0.02603;0.03629;0.04585;0.05471;0.06371;0.07176;0.07724;0.08065;0.08025;0.07758;0.07198;0.06535;0.05929;0.05465;0.05068;0.04841;0.04682;0.04599;0.04585;0.04504;0.04404;0.04344;0.04223;0.04175;0.04175;0.04285;0.04543;0.04875;0.05383;0.06023;0.06869;0.07875;0.09061;0.10318;0.11557;0.12769;0.13834;0.14917;0.16;0.17417;0.19464;0.22165;0.25602;0.29872;0.34655;0.39525;0.44117;0.48095;0.51093;0.53296;0.54784;0.55484;0.56069;0.56387;0.56497;0.56346;0.55833;0.55361;0.54626;0.53868;0.53085;0.52433;0.51751;0.50976;0.50347;0.49866;0.49472;0.49183;0.48804;0.48696;0.48563;0.48307;0.47959;0.47588;0.47192;0.46356;0.45641;0.44779;0.43826;0.42941;0.41859;0.40964;0.40057;0.39268;0.3835;0.37676;0.37019;0.365
-0.03843;-0.03871;-0.03872;-0.03814;-0.03622;-0.03286;-0.02874;-0.02293;-0.01672;-0.01174;-0.00826;-0.00585;-0.00465;-0.00457;-0.00484;-0.00482;-0.00579;-0.00715;-0.00831;-0.00924;-0.00992;-0.01088;-0.0116;-0.01237;-0.01335;-0.01375;-0.01376;-0.01403;-0.01391;-0.01361;-0.01346;-0.01252;-0.0115;-0.00951;-0.00659;-0.00127;0.00673;0.01799;0.03057;0.04447;0.05774;0.06987;0.08168;0.09225;0.10304;0.11251;0.11853;0.12217;0.12142;0.11774;0.11117;0.10393;0.09713;0.0919;0.08703;0.08467;0.08314;0.08177;0.08157;0.08039;0.07956;0.07846;0.07705;0.07638;0.0765;0.0777;0.08067;0.08483;0.09081;0.0988;0.10898;0.12129;0.13534;0.15011;0.16477;0.17941;0.19201;0.20465;0.21763;0.23419;0.2584;0.2911;0.3325;0.38418;0.44219;0.50043;0.55663;0.60327;0.63964;0.66665;0.68359;0.69243;0.70005;0.70329;0.70397;0.70243;0.69656;0.68988;0.68237;0.67345;0.66372;0.65499;0.64717;0.63738;0.63052;0.62365;0.61944;0.61587;0.61098;0.6101;0.60788;0.60402;0.60073;0.59584;0.59043;0.58103;0.57087;0.56073;0.54962;0.53841;0.52527;0.51363;0.50221;0.49365;0.48092;0.47354;0.4655;0.45892
-0.07097;-0.0715;-0.07124;-0.07088;-0.06908;-0.06598;-0.06186;-0.05597;-0.04995;-0.04469;-0.04104;-0.03887;-0.03787;-0.03788;-0.03785;-0.0382;-0.03904;-0.04036;-0.04156;-0.04246;-0.04331;-0.04448;-0.04507;-0.04594;-0.04654;-0.04706;-0.04726;-0.04776;-0.0477;-0.04717;-0.04696;-0.04602;-0.04506;-0.04309;-0.04;-0.0348;-0.02651;-0.01528;-0.0024;0.01187;0.02581;0.03875;0.05065;0.06159;0.07291;0.08291;0.08935;0.09304;0.09258;0.08857;0.08151;0.0735;0.06637;0.06046;0.05563;0.05285;0.05101;0.04999;0.04928;0.0481;0.04702;0.04608;0.04448;0.04359;0.04368;0.0452;0.04788;0.0521;0.05825;0.06656;0.07742;0.08982;0.10433;0.11968;0.13542;0.15055;0.16392;0.17698;0.19084;0.20842;0.234;0.26866;0.31193;0.36592;0.42732;0.48783;0.54583;0.59496;0.63217;0.65935;0.67756;0.68693;0.69458;0.69853;0.69984;0.69772;0.69118;0.68479;0.67667;0.66761;0.65795;0.65021;0.64086;0.63179;0.6239;0.61803;0.61298;0.60863;0.60457;0.60297;0.60093;0.59763;0.59284;0.58864;0.58228;0.57238;0.56256;0.55277;0.54098;0.52914;0.51599;0.50376;0.49228;0.48294;0.47077;0.46134;0.45373;0.44685
-0.03429;-0.03515;-0.0348;-0.03435;-0.03249;-0.02904;-0.02451;-0.01851;-0.01214;-0.00678;-0.00316;-0.00052;0.00045;0.00057;0.00059;0.00036;-0.00091;-0.00199;-0.00321;-0.00438;-0.00514;-0.00621;-0.00688;-0.0077;-0.0084;-0.00888;-0.00927;-0.00962;-0.00953;-0.00934;-0.00912;-0.00808;-0.00724;-0.00533;-0.00222;0.00314;0.01149;0.02308;0.03623;0.05052;0.06458;0.07773;0.09036;0.10153;0.11321;0.12343;0.13035;0.13372;0.13311;0.12876;0.12181;0.1137;0.10649;0.10077;0.09548;0.0932;0.09127;0.08998;0.08963;0.08829;0.08729;0.0864;0.08479;0.08365;0.0835;0.08496;0.0879;0.09223;0.09871;0.10703;0.11812;0.13122;0.14627;0.16162;0.17769;0.19321;0.20694;0.22013;0.23456;0.25267;0.27831;0.3141;0.35972;0.41559;0.47853;0.54281;0.60289;0.65452;0.69311;0.7214;0.74048;0.74948;0.75869;0.76137;0.76328;0.76203;0.75547;0.74752;0.73864;0.7296;0.71915;0.71082;0.70231;0.6914;0.68333;0.67685;0.67221;0.668;0.6644;0.66171;0.65936;0.65684;0.65144;0.6475;0.64008;0.63016;0.61939;0.60875;0.59517;0.58377;0.56914;0.55747;0.54471;0.53384;0.52203;0.51282;0.5037;0.49569
-0.03327;-0.03343;-0.03345;-0.03286;-0.03107;-0.02779;-0.02377;-0.0179;-0.0122;-0.00697;-0.00365;-0.00106;-8e-05;0.00015;-2e-04;-0.00022;-0.0013;-0.00251;-0.00384;-0.00463;-0.00524;-0.00632;-0.00683;-0.0075;-0.00816;-0.00883;-0.00889;-0.00924;-0.00888;-0.00881;-0.00849;-0.00739;-0.00661;-0.00465;-0.00188;0.0033;0.01109;0.02212;0.03457;0.04833;0.0617;0.07409;0.08584;0.09618;0.10693;0.11685;0.12354;0.12715;0.12664;0.12278;0.11599;0.10862;0.10151;0.09594;0.09136;0.08858;0.08692;0.08617;0.08555;0.08422;0.08338;0.08239;0.08111;0.08013;0.0804;0.08149;0.08446;0.08854;0.09474;0.1027;0.11298;0.12539;0.13922;0.1543;0.16924;0.18368;0.19676;0.20934;0.2227;0.2403;0.26447;0.29864;0.34077;0.39397;0.45354;0.51351;0.56986;0.6181;0.65466;0.67991;0.69855;0.70672;0.71405;0.71808;0.71838;0.71784;0.71027;0.70359;0.69623;0.68655;0.67733;0.66911;0.66122;0.65183;0.644;0.63792;0.6343;0.62925;0.62578;0.62427;0.62257;0.61932;0.61592;0.61052;0.60512;0.59569;0.58557;0.57594;0.56393;0.55198;0.5388;0.52817;0.51637;0.50668;0.49529;0.48654;0.47806;0.471
-0.04998;-0.05028;-0.04992;-0.04943;-0.04731;-0.044;-0.0392;-0.03425;-0.02865;-0.02345;-0.0199;-0.01759;-0.01626;-0.01602;-0.01608;-0.01601;-0.01631;-0.01719;-0.01826;-0.01904;-0.01977;-0.02026;-0.02098;-0.02153;-0.02195;-0.02233;-0.02262;-0.02236;-0.02231;-0.02209;-0.02141;-0.02034;-0.0194;-0.01718;-0.01447;-0.00912;-0.00124;0.00913;0.02131;0.03405;0.04627;0.05821;0.06895;0.07895;0.08895;0.09763;0.10296;0.10596;0.10544;0.10193;0.09587;0.08909;0.08313;0.07846;0.07479;0.07214;0.07032;0.06947;0.06926;0.06852;0.06804;0.06684;0.06567;0.06482;0.06533;0.06619;0.06903;0.07323;0.07912;0.08616;0.09586;0.10704;0.12038;0.13415;0.14811;0.16148;0.17282;0.18464;0.19667;0.21216;0.23467;0.26526;0.30347;0.3502;0.40247;0.45601;0.50511;0.54788;0.58161;0.60512;0.62033;0.62959;0.63637;0.63904;0.63928;0.6397;0.63409;0.62848;0.62202;0.61472;0.60629;0.59833;0.5915;0.58158;0.57519;0.56965;0.56445;0.56068;0.55688;0.55539;0.5518;0.54979;0.54595;0.54109;0.53516;0.52794;0.51891;0.50976;0.49889;0.48839;0.47703;0.46706;0.45744;0.44889;0.43905;0.43124;0.42378;0.41894
-0.04634;-0.04646;-0.04607;-0.04601;-0.04396;-0.04086;-0.0364;-0.03137;-0.02572;-0.02066;-0.01718;-0.01475;-0.01347;-0.01352;-0.01353;-0.01363;-0.01406;-0.01488;-0.01595;-0.01684;-0.01744;-0.01802;-0.01864;-0.01929;-0.02002;-0.02016;-0.02053;-0.02063;-0.02026;-0.02006;-0.01952;-0.01874;-0.01765;-0.01546;-0.01283;-0.00734;0.00048;0.01085;0.02326;0.03622;0.04878;0.06071;0.07185;0.08234;0.09244;0.1017;0.10706;0.11061;0.10988;0.10614;0.09979;0.09281;0.08621;0.08137;0.07738;0.07479;0.0732;0.07233;0.07182;0.07116;0.07065;0.06923;0.06786;0.06709;0.06768;0.06871;0.07137;0.07557;0.08157;0.08888;0.09884;0.11011;0.1239;0.13777;0.15253;0.1664;0.17831;0.19095;0.20328;0.21968;0.24346;0.27578;0.31688;0.36761;0.4245;0.48313;0.53805;0.58627;0.62355;0.65079;0.66795;0.6787;0.68614;0.68979;0.69049;0.68939;0.68365;0.67704;0.66841;0.66045;0.6511;0.6422;0.63439;0.62435;0.61711;0.61084;0.60559;0.60163;0.59792;0.59513;0.59241;0.59014;0.58573;0.58116;0.57428;0.56724;0.55625;0.54526;0.53373;0.52192;0.50828;0.49784;0.48731;0.47596;0.46582;0.457;0.44867;0.44306
0.05449;0.05371;0.05376;0.05421;0.056;0.05948;0.06389;0.06927;0.07525;0.08076;0.08455;0.08657;0.08777;0.08812;0.08754;0.0873;0.08666;0.08556;0.08407;0.08288;0.08206;0.08118;0.08012;0.07914;0.07858;0.07773;0.07714;0.07749;0.07728;0.07719;0.07827;0.07891;0.07974;0.0821;0.08509;0.09082;0.09947;0.11099;0.12449;0.13912;0.15293;0.16577;0.17768;0.18905;0.19988;0.20987;0.21576;0.21904;0.21818;0.21383;0.20729;0.19916;0.19183;0.18633;0.18187;0.17896;0.17689;0.17579;0.17501;0.17409;0.17322;0.17213;0.17012;0.16949;0.17012;0.17084;0.17394;0.17816;0.18493;0.19245;0.20261;0.21526;0.22989;0.24536;0.26053;0.2749;0.28771;0.30129;0.31431;0.33168;0.35593;0.38965;0.43077;0.48272;0.54091;0.59832;0.65261;0.69898;0.73474;0.76131;0.77799;0.78868;0.79443;0.79925;0.79988;0.79889;0.79292;0.78699;0.77843;0.77099;0.7623;0.75297;0.74613;0.73507;0.72767;0.72212;0.71618;0.71178;0.70901;0.70572;0.70229;0.70057;0.69643;0.69076;0.68474;0.6767;0.66667;0.65676;0.64477;0.63425;0.62144;0.60989;0.59944;0.58937;0.57987;0.56982;0.56162;0.55678
-0.0097;-0.00992;-0.01004;-0.00928;-0.0076;-0.00412;0.00031;0.0058;0.01172;0.01697;0.02081;0.02329;0.02433;0.02481;0.02468;0.02391;0.02346;0.02244;0.02112;0.02007;0.01927;0.01856;0.01788;0.01706;0.01632;0.01598;0.01544;0.01549;0.01549;0.01562;0.01651;0.01724;0.01813;0.02031;0.02342;0.02901;0.03723;0.04829;0.06129;0.07556;0.08909;0.10141;0.11354;0.12461;0.13544;0.14514;0.15102;0.15455;0.15365;0.14961;0.14326;0.13579;0.12867;0.12328;0.11933;0.11625;0.11412;0.11324;0.11264;0.11189;0.11092;0.10965;0.10788;0.1072;0.10776;0.10881;0.11177;0.11613;0.12226;0.13009;0.14049;0.15285;0.16739;0.18244;0.19811;0.21298;0.22559;0.23885;0.25161;0.26925;0.29352;0.32772;0.37038;0.42297;0.4815;0.54107;0.59576;0.64281;0.67922;0.70521;0.72161;0.73207;0.73848;0.74158;0.74196;0.74235;0.7352;0.7303;0.72217;0.71375;0.70419;0.6957;0.68723;0.67673;0.66973;0.66416;0.65907;0.65526;0.65168;0.64855;0.64595;0.64324;0.63891;0.63425;0.62712;0.61937;0.60914;0.59926;0.5873;0.57564;0.56274;0.55183;0.54111;0.53067;0.51951;0.51135;0.50325;0.49654
-0.02508;-0.02528;-0.025;-0.02452;-0.02306;-0.01973;-0.01571;-0.01107;-0.00604;-0.00127;0.00225;0.00411;0.00519;0.00554;0.00545;0.00544;0.00492;0.00422;0.00295;0.00231;0.0015;0.001;0.00058;-7e-05;-6e-04;-0.00101;-0.00106;-0.00086;-0.00072;-0.00058;0.00026;0.00104;0.00195;0.00403;0.00656;0.0116;0.01877;0.02838;0.03969;0.05183;0.06329;0.07443;0.08476;0.09379;0.10299;0.11118;0.11629;0.11958;0.11906;0.11568;0.11004;0.10367;0.09783;0.09349;0.09011;0.08728;0.08547;0.08471;0.0843;0.08378;0.08289;0.08186;0.08052;0.07979;0.0801;0.08088;0.08399;0.08763;0.09286;0.09959;0.10862;0.11942;0.1319;0.14477;0.15818;0.17068;0.18172;0.19318;0.20392;0.21875;0.23993;0.26867;0.30553;0.3501;0.40038;0.45237;0.50051;0.54256;0.57466;0.59787;0.61257;0.62277;0.62858;0.63136;0.63249;0.63125;0.62601;0.62009;0.613;0.60479;0.59608;0.58905;0.58223;0.5722;0.56584;0.56055;0.55597;0.55171;0.5493;0.54672;0.54421;0.54148;0.53812;0.53417;0.52871;0.52156;0.51286;0.50411;0.49417;0.48393;0.47239;0.4622;0.45306;0.44493;0.43463;0.4281;0.42029;0.41559
0.06267;0.06183;0.06203;0.0625;0.06386;0.06723;0.07184;0.07694;0.08331;0.08863;0.09202;0.09388;0.09461;0.09493;0.09456;0.09388;0.09279;0.09171;0.09055;0.08925;0.08806;0.08722;0.08635;0.08552;0.08452;0.08414;0.08347;0.08312;0.08322;0.08333;0.0841;0.08414;0.0854;0.08737;0.09021;0.09573;0.10402;0.11572;0.12852;0.14319;0.15732;0.17024;0.18215;0.19381;0.20493;0.2152;0.22094;0.22492;0.22426;0.21985;0.21252;0.20512;0.19703;0.19228;0.1875;0.18437;0.18202;0.18154;0.18053;0.17969;0.17872;0.17697;0.17552;0.17504;0.17512;0.17585;0.17928;0.18385;0.19034;0.19787;0.20865;0.22179;0.23701;0.2523;0.26844;0.28343;0.29669;0.31031;0.32356;0.34229;0.36725;0.40178;0.44484;0.49828;0.55862;0.61891;0.67526;0.72203;0.75992;0.78597;0.80381;0.81196;0.82098;0.82341;0.8221;0.82421;0.81643;0.80981;0.80147;0.79267;0.78209;0.77435;0.76699;0.75763;0.74869;0.74375;0.73832;0.73473;0.73157;0.72768;0.72426;0.72202;0.72031;0.71361;0.70749;0.69811;0.68908;0.67694;0.66624;0.65294;0.64055;0.62944;0.61718;0.60721;0.59526;0.5869;0.57837;0.57153
-0.10346;-0.10344;-0.10349;-0.10283;-0.10177;-0.09873;-0.09448;-0.08984;-0.08424;-0.07951;-0.07651;-0.07433;-0.07359;-0.07332;-0.07345;-0.07378;-0.07475;-0.07553;-0.07648;-0.07739;-0.07843;-0.07919;-0.07961;-0.08058;-0.08092;-0.08153;-0.08166;-0.08195;-0.08206;-0.08123;-0.08047;-0.07951;-0.07792;-0.07674;-0.07347;-0.0685;-0.06067;-0.05102;-0.03968;-0.02706;-0.01468;-0.00338;0.00754;0.01777;0.02784;0.03661;0.04251;0.04596;0.04547;0.04168;0.03561;0.02877;0.02226;0.01728;0.0134;0.01098;0.00948;0.0085;0.00795;0.00738;0.00657;0.00534;0.00431;0.00398;0.00383;0.00481;0.00737;0.01165;0.01699;0.02446;0.03396;0.04583;0.05915;0.07291;0.08722;0.10048;0.11277;0.12473;0.13726;0.15315;0.17577;0.20733;0.24733;0.29682;0.3533;0.41045;0.46551;0.51261;0.54929;0.57678;0.59344;0.60254;0.61096;0.61496;0.61492;0.61407;0.60815;0.60144;0.59309;0.58405;0.5745;0.56588;0.55818;0.5494;0.54154;0.53593;0.5306;0.5271;0.52332;0.52116;0.51867;0.51592;0.51262;0.50857;0.50174;0.49335;0.48369;0.47303;0.46212;0.44921;0.43749;0.42566;0.41413;0.40408;0.39367;0.38518;0.37754;0.37074
0.07941;0.07863;0.07865;0.07918;0.0804;0.08379;0.0889;0.09429;0.10113;0.10661;0.10986;0.11221;0.1135;0.11342;0.11334;0.11269;0.11165;0.11023;0.10946;0.10751;0.1065;0.10556;0.10419;0.10347;0.10242;0.10155;0.1007;0.1003;0.10005;0.10057;0.10095;0.10128;0.10263;0.10466;0.10763;0.11358;0.12298;0.13519;0.14944;0.16544;0.18089;0.19498;0.20767;0.22052;0.2326;0.24305;0.24958;0.25347;0.25288;0.24786;0.23974;0.23057;0.22185;0.21634;0.2108;0.20744;0.20484;0.20375;0.20292;0.202;0.20084;0.19935;0.1973;0.19664;0.19668;0.19736;0.2009;0.20561;0.21241;0.22058;0.23172;0.24559;0.26171;0.27775;0.29535;0.31072;0.3253;0.34006;0.35423;0.37308;0.39894;0.43484;0.47911;0.53402;0.59645;0.65785;0.71409;0.76427;0.80256;0.82959;0.84644;0.85581;0.86419;0.86804;0.86899;0.86961;0.86172;0.85657;0.84868;0.83872;0.82849;0.8212;0.81386;0.80439;0.79575;0.79015;0.78408;0.78008;0.77602;0.7725;0.76967;0.76777;0.76286;0.75881;0.75247;0.74354;0.73312;0.72159;0.7105;0.69786;0.68476;0.67481;0.66221;0.65129;0.63973;0.63234;0.6228;0.61623
0.00398;0.00309;0.00331;0.00377;0.00502;0.00792;0.01207;0.01648;0.02183;0.02616;0.02895;0.03115;0.03201;0.03236;0.03215;0.03182;0.0313;0.03048;0.02984;0.02884;0.02816;0.02758;0.02707;0.0265;0.02607;0.02549;0.02548;0.0254;0.02534;0.02593;0.02652;0.02668;0.02799;0.02994;0.03238;0.03725;0.04459;0.0539;0.06468;0.07679;0.08845;0.09928;0.10899;0.11865;0.12777;0.13595;0.14091;0.14403;0.14411;0.1405;0.13518;0.129;0.12291;0.11894;0.1152;0.11279;0.11136;0.11069;0.11014;0.10943;0.1088;0.10758;0.10623;0.10653;0.10654;0.10713;0.10974;0.1141;0.11939;0.1257;0.13424;0.14511;0.15752;0.17017;0.18343;0.19573;0.20696;0.21785;0.22933;0.24466;0.26474;0.29308;0.32861;0.3732;0.42362;0.47528;0.52513;0.56756;0.5994;0.62378;0.63874;0.64638;0.65494;0.6577;0.65806;0.65882;0.65188;0.64706;0.63918;0.63203;0.62311;0.61524;0.60856;0.59988;0.59345;0.58756;0.58289;0.57888;0.57699;0.57398;0.57108;0.56893;0.56655;0.56236;0.55714;0.54888;0.54052;0.53019;0.52073;0.51013;0.49802;0.48918;0.47908;0.47025;0.46109;0.45416;0.44717;0.44149
-0.01272;-0.01292;-0.01335;-0.01255;-0.01146;-0.00842;-0.0043;2e-04;0.00606;0.01078;0.01358;0.01568;0.01637;0.01671;0.01659;0.01589;0.01504;0.01408;0.01343;0.0122;0.01105;0.01033;0.00996;0.00911;0.00846;0.00818;0.00788;0.00767;0.0076;0.00806;0.00864;0.00915;0.01048;0.01237;0.01515;0.02034;0.02822;0.03847;0.05034;0.06359;0.07676;0.0887;0.09945;0.10998;0.12004;0.12911;0.13485;0.13809;0.13783;0.13429;0.12795;0.12078;0.11385;0.10876;0.10459;0.10198;0.10016;0.0991;0.09827;0.09758;0.09666;0.0953;0.0943;0.09372;0.09374;0.09444;0.098;0.10209;0.1078;0.11504;0.12422;0.13644;0.15012;0.16399;0.17842;0.19226;0.20458;0.21713;0.22955;0.24626;0.26938;0.30091;0.34021;0.39006;0.44634;0.50336;0.55716;0.60322;0.63898;0.66507;0.68094;0.68928;0.69831;0.70154;0.7012;0.70076;0.69433;0.68835;0.68113;0.67187;0.66205;0.65372;0.6464;0.63699;0.62911;0.62403;0.61758;0.61458;0.61042;0.60751;0.60527;0.60246;0.59884;0.59468;0.58833;0.57949;0.5712;0.55959;0.55006;0.53702;0.52678;0.51568;0.50463;0.49541;0.48475;0.47775;0.46973;0.46404
-0.00271;-0.00253;-0.00263;-0.00154;0.00018;0.0033;0.00817;0.01287;0.01865;0.02396;0.02693;0.02957;0.03015;0.03066;0.03037;0.02966;0.02891;0.02756;0.02644;0.02566;0.0248;0.02394;0.02308;0.02261;0.022;0.0214;0.02134;0.02119;0.02108;0.02138;0.02209;0.02264;0.02387;0.02531;0.02816;0.03316;0.04093;0.05191;0.0641;0.07761;0.09074;0.10267;0.11325;0.12381;0.13438;0.14396;0.14979;0.1533;0.15297;0.14908;0.14252;0.13566;0.12849;0.12371;0.1195;0.11657;0.11481;0.114;0.11329;0.1126;0.11152;0.11061;0.10884;0.10792;0.10912;0.11009;0.11311;0.11737;0.12394;0.13125;0.14164;0.15393;0.16782;0.18213;0.1968;0.21049;0.2227;0.23604;0.2489;0.26737;0.29148;0.32617;0.36829;0.42055;0.4797;0.53839;0.59288;0.64007;0.67698;0.70232;0.71931;0.73027;0.73687;0.74196;0.74002;0.73993;0.73279;0.72533;0.716;0.70655;0.69716;0.68743;0.67963;0.6703;0.66363;0.65639;0.65155;0.64741;0.64416;0.64065;0.63955;0.63614;0.63191;0.62705;0.62126;0.61355;0.60273;0.59268;0.58063;0.56893;0.55579;0.54414;0.53232;0.52266;0.51203;0.50329;0.49491;0.48752
-0.10797;-0.10729;-0.10733;-0.10698;-0.10497;-0.10207;-0.09761;-0.09311;-0.08791;-0.08335;-0.08015;-0.07798;-0.07726;-0.07623;-0.07667;-0.0773;-0.07795;-0.07871;-0.0796;-0.08012;-0.08096;-0.08176;-0.08226;-0.08287;-0.08332;-0.08346;-0.08348;-0.08362;-0.08343;-0.08232;-0.08158;-0.08038;-0.07904;-0.07783;-0.07487;-0.06982;-0.06248;-0.05308;-0.0419;-0.03013;-0.01838;-0.00763;0.00175;0.01111;0.02087;0.02906;0.03442;0.03748;0.03745;0.03435;0.02856;0.02252;0.0165;0.01199;0.00859;0.00605;0.0043;0.00347;0.00302;0.00234;0.00156;0.00052;-6e-04;-0.00144;-0.00076;0.00035;0.00293;0.00673;0.01257;0.01964;0.0291;0.04049;0.05341;0.06607;0.07981;0.09244;0.10371;0.11509;0.12647;0.1425;0.16515;0.19583;0.23386;0.28056;0.33298;0.38541;0.43445;0.47598;0.50837;0.5327;0.54813;0.55706;0.56298;0.567;0.56724;0.56581;0.5589;0.55323;0.54514;0.53603;0.52756;0.51858;0.51122;0.50276;0.49592;0.48955;0.48516;0.48156;0.47855;0.47584;0.47472;0.47137;0.46754;0.46303;0.45867;0.45082;0.44214;0.43288;0.42302;0.41235;0.40143;0.39114;0.38089;0.37206;0.36267;0.35536;0.34804;0.34211
-0.01417;-0.0136;-0.01368;-0.01265;-0.01091;-0.00777;-0.00266;0.00228;0.00797;0.01312;0.017;0.01944;0.02007;0.02083;0.0204;0.01991;0.01902;0.01835;0.01724;0.01655;0.01563;0.01476;0.01381;0.01362;0.01297;0.01232;0.01224;0.01199;0.01212;0.01263;0.01321;0.01403;0.015;0.01681;0.01952;0.0248;0.0327;0.0434;0.05568;0.06897;0.08196;0.09377;0.10444;0.11483;0.12545;0.13482;0.14051;0.14415;0.1436;0.13982;0.13358;0.12656;0.12002;0.11529;0.11136;0.10871;0.10698;0.10656;0.1057;0.10486;0.10415;0.10306;0.10142;0.10053;0.10189;0.10282;0.10586;0.10972;0.11641;0.12391;0.13367;0.14579;0.15938;0.17388;0.18835;0.2023;0.21422;0.22735;0.23953;0.25787;0.28235;0.31672;0.35929;0.41141;0.47072;0.53014;0.58547;0.63349;0.67067;0.69832;0.71469;0.72536;0.7325;0.7376;0.73712;0.73625;0.72839;0.72148;0.71222;0.70275;0.6934;0.68324;0.67534;0.66539;0.65851;0.65129;0.64698;0.64233;0.63954;0.63561;0.63403;0.6312;0.62652;0.62083;0.61559;0.60651;0.59633;0.58617;0.57541;0.5623;0.54914;0.53748;0.52509;0.51575;0.50463;0.49629;0.48782;0.4808
-0.01842;-0.01792;-0.01824;-0.01751;-0.01602;-0.01267;-0.00836;-0.0038;0.00177;0.00647;0.00976;0.01202;0.01258;0.01318;0.01283;0.01235;0.01154;0.01073;0.00963;0.00866;0.00794;0.00704;0.0062;0.00593;0.00516;0.00493;0.00485;0.0047;0.00469;0.00533;0.00581;0.00646;0.00764;0.00912;0.01167;0.01684;0.02419;0.03442;0.04623;0.05927;0.07192;0.08322;0.09366;0.1033;0.11348;0.12264;0.12838;0.13173;0.13131;0.12742;0.12142;0.1145;0.1081;0.10327;0.09952;0.09689;0.09534;0.09455;0.0941;0.09341;0.09243;0.09159;0.09028;0.08939;0.09013;0.0912;0.09412;0.09815;0.10492;0.11172;0.1214;0.13318;0.14653;0.16014;0.17438;0.18788;0.19956;0.21231;0.22466;0.24245;0.26632;0.29943;0.34064;0.39121;0.44914;0.50632;0.5602;0.60611;0.64302;0.66895;0.68532;0.69525;0.70211;0.70623;0.70636;0.70504;0.69842;0.69059;0.68225;0.67285;0.66404;0.65505;0.64674;0.6383;0.62971;0.62419;0.62004;0.61608;0.61297;0.60951;0.60848;0.60457;0.60122;0.59617;0.59134;0.58205;0.57206;0.56251;0.55124;0.53939;0.5266;0.51482;0.50446;0.4936;0.48356;0.47552;0.46684;0.45984
0.01897;0.01889;0.0185;0.01868;0.02024;0.02332;0.02755;0.03219;0.03757;0.04209;0.04517;0.04734;0.04772;0.04839;0.04805;0.04736;0.04618;0.04531;0.04411;0.04275;0.04202;0.04118;0.04018;0.03955;0.03885;0.03809;0.03795;0.03773;0.03757;0.0379;0.0384;0.03898;0.03982;0.04168;0.04423;0.04935;0.05715;0.0677;0.08012;0.09326;0.10606;0.11763;0.12788;0.1376;0.14776;0.15724;0.16292;0.16589;0.16577;0.16199;0.15545;0.14807;0.14141;0.13621;0.13248;0.12933;0.12747;0.12651;0.12588;0.12505;0.12423;0.12319;0.12166;0.1208;0.12188;0.12265;0.12539;0.1295;0.1359;0.14289;0.15231;0.16378;0.1768;0.19045;0.20431;0.21729;0.22867;0.24116;0.25295;0.27032;0.29305;0.32404;0.36255;0.40992;0.46313;0.51555;0.56591;0.60806;0.64153;0.66655;0.68239;0.69087;0.69719;0.70236;0.70237;0.70141;0.69565;0.68945;0.68173;0.67373;0.66558;0.65693;0.64945;0.64134;0.63464;0.62791;0.6232;0.61953;0.61667;0.61348;0.611;0.60858;0.60503;0.59977;0.59535;0.58765;0.57817;0.56915;0.55948;0.54839;0.53763;0.52718;0.51709;0.50801;0.49841;0.4916;0.48349;0.47774
-0.02113;-0.02152;-0.02166;-0.02096;-0.01984;-0.01653;-0.01217;-0.00681;-0.00077;0.00477;0.00788;0.00989;0.01068;0.01085;0.01084;0.01015;0.00917;0.00818;0.00707;0.00604;0.00488;0.00395;0.00309;0.00199;0.00134;7e-04;8e-05;-3e-05;-7e-05;0.00046;0.00104;0.00152;0.00275;0.00444;0.00747;0.01307;0.02194;0.03295;0.04622;0.0608;0.07503;0.08845;0.10042;0.11235;0.12406;0.13387;0.13994;0.14348;0.14266;0.13826;0.13079;0.12269;0.11444;0.10913;0.10428;0.10126;0.09912;0.09779;0.09725;0.09642;0.0951;0.09411;0.09244;0.09204;0.09202;0.09268;0.09621;0.10078;0.10663;0.11508;0.12578;0.1391;0.15411;0.16985;0.18623;0.20142;0.21498;0.22897;0.24299;0.26182;0.28831;0.32399;0.36837;0.42434;0.48683;0.5481;0.60551;0.65511;0.69335;0.72042;0.73719;0.74534;0.75358;0.75713;0.75798;0.75754;0.75053;0.74502;0.73676;0.72774;0.71748;0.70957;0.7011;0.69189;0.68424;0.67731;0.67091;0.66773;0.66371;0.65976;0.65621;0.65398;0.6499;0.64568;0.63933;0.62905;0.62003;0.60844;0.5974;0.58484;0.57218;0.56046;0.54872;0.53814;0.52699;0.51896;0.5105;0.50372
-0.05729;-0.05763;-0.05699;-0.05612;-0.05466;-0.0516;-0.04724;-0.04227;-0.0367;-0.03186;-0.02847;-0.02658;-0.02556;-0.02521;-0.02473;-0.02528;-0.02598;-0.0268;-0.02739;-0.02811;-0.02922;-0.02996;-0.03045;-0.03111;-0.03157;-0.0321;-0.03241;-0.03232;-0.03233;-0.03168;-0.0311;-0.03045;-0.02914;-0.02744;-0.02501;-0.01994;-0.01181;-0.00195;0.0097;0.02242;0.03533;0.04737;0.05763;0.068;0.07791;0.08697;0.09247;0.09542;0.09519;0.09111;0.08519;0.07843;0.0716;0.0669;0.06288;0.06044;0.05894;0.05772;0.05714;0.05657;0.05587;0.05478;0.05361;0.05336;0.05338;0.0545;0.05726;0.06139;0.06696;0.07433;0.08344;0.09487;0.10841;0.1215;0.13597;0.14942;0.16101;0.17296;0.18499;0.20144;0.22349;0.25397;0.29245;0.33968;0.39324;0.44743;0.49892;0.54424;0.57946;0.60422;0.62063;0.62927;0.63689;0.64078;0.64122;0.64055;0.63402;0.62865;0.62183;0.61395;0.6044;0.59673;0.58926;0.58079;0.57378;0.56785;0.5633;0.56018;0.55622;0.55364;0.55056;0.54812;0.54447;0.54127;0.53509;0.52737;0.5179;0.50762;0.4976;0.48614;0.47425;0.46376;0.45286;0.44423;0.43463;0.42712;0.41954;0.41395
-0.05545;-0.05547;-0.05562;-0.05486;-0.05358;-0.05096;-0.04712;-0.04249;-0.03725;-0.03291;-0.02985;-0.02824;-0.0272;-0.02681;-0.02679;-0.02704;-0.02772;-0.02851;-0.02901;-0.02978;-0.03053;-0.03129;-0.03169;-0.03262;-0.03285;-0.03333;-0.03335;-0.03352;-0.03334;-0.03264;-0.0323;-0.0318;-0.03036;-0.02908;-0.02634;-0.02141;-0.01381;-0.00445;0.00656;0.01864;0.03066;0.0417;0.05169;0.06176;0.07098;0.07941;0.08441;0.08764;0.0871;0.08345;0.07758;0.07136;0.06513;0.06058;0.05697;0.0549;0.05329;0.05248;0.05194;0.05122;0.05085;0.0499;0.04891;0.04869;0.0488;0.04959;0.05243;0.05655;0.06153;0.06848;0.07731;0.08854;0.10106;0.11393;0.12747;0.1403;0.15145;0.16291;0.17456;0.19043;0.21239;0.24218;0.28004;0.32723;0.38152;0.43667;0.48941;0.53517;0.57194;0.59728;0.61378;0.6234;0.63178;0.63535;0.63645;0.63547;0.6295;0.6243;0.61643;0.6083;0.59844;0.5903;0.58295;0.57412;0.56629;0.5608;0.55577;0.55216;0.54866;0.54556;0.54203;0.53919;0.53619;0.53228;0.52676;0.51824;0.50791;0.49805;0.48764;0.47575;0.46438;0.45299;0.44243;0.43287;0.42303;0.41497;0.40679;0.40038
-0.00933;-0.01014;-0.01034;-0.01006;-0.00893;-0.00649;-0.00287;0.00129;0.00636;0.01048;0.01331;0.01498;0.01567;0.01567;0.01577;0.01537;0.0144;0.01333;0.01303;0.01198;0.01074;0.01014;0.00947;0.00868;0.0082;0.00749;0.00744;0.00716;0.00726;0.00783;0.00817;0.00884;0.00992;0.01154;0.01428;0.01923;0.02687;0.03648;0.04746;0.06012;0.07233;0.08332;0.09353;0.10343;0.113;0.12142;0.12616;0.12918;0.12877;0.12509;0.11924;0.11241;0.10578;0.10103;0.09696;0.09481;0.09308;0.09179;0.09155;0.09092;0.09027;0.08941;0.08806;0.08788;0.08776;0.0886;0.09161;0.09562;0.10092;0.10773;0.11624;0.12755;0.14025;0.15328;0.16675;0.17972;0.19089;0.20263;0.21463;0.23029;0.25234;0.28219;0.31948;0.36641;0.41961;0.4735;0.52489;0.56947;0.60325;0.62906;0.64534;0.65439;0.66219;0.66641;0.66659;0.66596;0.66031;0.65381;0.64778;0.63985;0.63091;0.62247;0.61552;0.60656;0.59931;0.59355;0.58743;0.58407;0.57925;0.57676;0.57354;0.57068;0.5672;0.56321;0.55753;0.54933;0.54091;0.53076;0.52111;0.50885;0.49826;0.48865;0.47786;0.46892;0.46017;0.45265;0.44566;0.44026
-0.05941;-0.05981;-0.05955;-0.0592;-0.05793;-0.05557;-0.05184;-0.04763;-0.04248;-0.03828;-0.03544;-0.03377;-0.03313;-0.0328;-0.03253;-0.03301;-0.03369;-0.03447;-0.03495;-0.03566;-0.03678;-0.03745;-0.03799;-0.03863;-0.03923;-0.03974;-0.03977;-0.03983;-0.03981;-0.03928;-0.03907;-0.03831;-0.03727;-0.03594;-0.03315;-0.02861;-0.02113;-0.01183;-0.00108;0.01078;0.02272;0.03358;0.04357;0.05315;0.06251;0.07066;0.07559;0.07843;0.07847;0.07464;0.06874;0.06239;0.05601;0.05139;0.04771;0.04544;0.04384;0.04271;0.04236;0.04201;0.0413;0.04041;0.03935;0.03908;0.03906;0.03986;0.04273;0.04629;0.05162;0.05858;0.06673;0.07744;0.08992;0.10255;0.11574;0.12831;0.13941;0.15045;0.16221;0.17767;0.19896;0.22785;0.26437;0.31069;0.36245;0.41508;0.46598;0.51089;0.54527;0.57043;0.5866;0.59531;0.60283;0.60599;0.6074;0.60698;0.60222;0.59557;0.58852;0.58026;0.57195;0.56422;0.55672;0.54778;0.5412;0.53501;0.52979;0.52636;0.52343;0.52064;0.5173;0.51484;0.51205;0.50747;0.50174;0.49381;0.48534;0.47531;0.4649;0.45348;0.44197;0.43161;0.42112;0.41277;0.40374;0.39585;0.38874;0.38315
-0.01469;-0.01567;-0.01601;-0.01573;-0.01444;-0.01219;-0.00847;-0.0038;0.00138;0.00559;0.00871;0.01047;0.0113;0.0113;0.01135;0.01121;0.01023;0.00904;0.00786;0.00692;0.0064;0.00541;0.00503;0.00409;0.00334;0.00283;0.00281;0.00234;0.00249;0.00275;0.00295;0.00391;0.00466;0.00661;0.00919;0.0142;0.02119;0.03093;0.04215;0.05442;0.06642;0.07757;0.08825;0.09745;0.10729;0.11588;0.12127;0.12411;0.12393;0.12051;0.11472;0.10795;0.10158;0.09694;0.09259;0.09031;0.08843;0.08765;0.08735;0.08647;0.08542;0.08445;0.083;0.08261;0.08265;0.08362;0.08632;0.08985;0.09558;0.10253;0.11171;0.12287;0.1351;0.14849;0.16211;0.1752;0.18695;0.19874;0.21033;0.22574;0.24715;0.27671;0.31381;0.36095;0.41317;0.46678;0.51683;0.55977;0.5931;0.61598;0.6318;0.63942;0.64732;0.65015;0.65075;0.6496;0.64407;0.63893;0.631;0.6238;0.61451;0.6081;0.60042;0.59168;0.58551;0.57955;0.57556;0.57114;0.56713;0.56647;0.56348;0.56145;0.55753;0.55376;0.54788;0.53979;0.53171;0.52316;0.51205;0.50148;0.48928;0.47929;0.46939;0.46089;0.45087;0.44319;0.43658;0.43059
0.03335;0.03193;0.03164;0.03193;0.03314;0.03614;0.03976;0.04497;0.05035;0.05504;0.05804;0.06004;0.06095;0.06102;0.06082;0.06091;0.06025;0.0589;0.05755;0.05669;0.05606;0.05522;0.05475;0.05393;0.05314;0.05256;0.05262;0.052;0.05245;0.05252;0.05291;0.05358;0.05449;0.05657;0.05936;0.06426;0.07181;0.08209;0.09373;0.10679;0.11946;0.13118;0.14229;0.15194;0.16211;0.17091;0.17617;0.17941;0.17894;0.17516;0.16878;0.16167;0.15486;0.15009;0.14551;0.14291;0.14094;0.14016;0.13989;0.13869;0.138;0.13706;0.13553;0.13473;0.13549;0.13637;0.13892;0.143;0.14875;0.15571;0.16513;0.17646;0.18905;0.20256;0.21666;0.22982;0.24223;0.25425;0.26624;0.28275;0.30474;0.33544;0.37323;0.42132;0.47529;0.53014;0.58168;0.62655;0.6615;0.68573;0.70197;0.71076;0.71905;0.72242;0.72343;0.72352;0.71713;0.71093;0.70364;0.69623;0.68696;0.67946;0.6717;0.66241;0.65495;0.64902;0.64457;0.6404;0.63619;0.63431;0.63078;0.6283;0.62402;0.62014;0.61507;0.60678;0.59696;0.5883;0.57771;0.56698;0.55623;0.54568;0.53526;0.52753;0.51706;0.50985;0.50228;0.49685
0.00828;0.00711;0.00701;0.00712;0.00867;0.01152;0.01521;0.02097;0.02653;0.0315;0.03468;0.03688;0.03825;0.03801;0.03791;0.03737;0.03675;0.0354;0.03413;0.03293;0.03201;0.03127;0.03023;0.02943;0.02864;0.028;0.02778;0.02745;0.02745;0.02765;0.02789;0.02882;0.02945;0.03171;0.03431;0.03987;0.0478;0.05899;0.07152;0.08513;0.09873;0.11146;0.12323;0.13417;0.14491;0.15438;0.16025;0.16327;0.1625;0.15874;0.15197;0.14461;0.1373;0.13227;0.12751;0.12465;0.1225;0.12149;0.12146;0.11995;0.11914;0.11802;0.11631;0.11556;0.11572;0.11685;0.11968;0.12364;0.13004;0.13737;0.14771;0.16012;0.17363;0.18865;0.20337;0.2175;0.23083;0.2438;0.25624;0.27315;0.2966;0.32881;0.36922;0.41979;0.47595;0.53321;0.58703;0.63325;0.66958;0.69492;0.71161;0.72094;0.72883;0.73356;0.73421;0.73493;0.72838;0.72156;0.71571;0.7071;0.69794;0.68999;0.68306;0.67246;0.66594;0.6597;0.6547;0.65052;0.64616;0.64482;0.64216;0.63919;0.63522;0.63037;0.62479;0.61585;0.60642;0.59701;0.58565;0.5745;0.56155;0.55036;0.53969;0.5303;0.51961;0.51147;0.50336;0.49617
-0.03765;-0.03841;-0.03899;-0.03877;-0.03722;-0.03405;-0.02982;-0.02422;-0.01814;-0.01293;-0.00952;-0.00715;-0.00632;-0.00616;-0.00642;-0.00669;-0.00759;-0.00916;-0.01065;-0.01188;-0.01284;-0.01405;-0.01469;-0.01583;-0.01676;-0.01745;-0.0177;-0.01812;-0.01813;-0.01802;-0.01782;-0.01693;-0.01608;-0.01414;-0.01096;-0.00527;0.0036;0.01532;0.02867;0.0433;0.05761;0.07139;0.0843;0.09573;0.10751;0.11793;0.1242;0.1275;0.12687;0.1224;0.11492;0.1064;0.09864;0.09286;0.08778;0.08491;0.08269;0.08154;0.08139;0.08012;0.07914;0.07792;0.07608;0.07539;0.07534;0.07657;0.07968;0.08391;0.0905;0.09895;0.11008;0.12358;0.13823;0.15422;0.17049;0.18606;0.20037;0.21365;0.22817;0.247;0.27295;0.30884;0.35376;0.41009;0.47299;0.53651;0.59612;0.64769;0.68627;0.715;0.73386;0.74213;0.75304;0.75593;0.75758;0.75735;0.75011;0.74381;0.73612;0.72601;0.71595;0.70864;0.69843;0.6888;0.68115;0.67386;0.66875;0.66414;0.65897;0.65733;0.65487;0.65186;0.64679;0.64171;0.63561;0.62495;0.61414;0.6036;0.59172;0.57922;0.56579;0.55313;0.5414;0.53064;0.51833;0.50918;0.50012;0.49271
0.06769;0.06731;0.06674;0.06696;0.06861;0.07132;0.07476;0.07963;0.08497;0.08953;0.09223;0.09445;0.09535;0.09538;0.09522;0.0953;0.09482;0.09313;0.09239;0.0915;0.09111;0.09008;0.08962;0.08923;0.0886;0.08839;0.08783;0.08795;0.08805;0.08823;0.08857;0.0894;0.08996;0.09228;0.09491;0.09995;0.10666;0.11628;0.12712;0.13933;0.15109;0.16221;0.17271;0.18227;0.1915;0.19995;0.2051;0.20798;0.20757;0.20442;0.19866;0.19216;0.18621;0.18199;0.17753;0.1754;0.17331;0.17291;0.1725;0.17109;0.17062;0.1698;0.16828;0.16789;0.16822;0.16939;0.17216;0.17571;0.18106;0.18768;0.19686;0.20754;0.21978;0.23301;0.24647;0.25891;0.27103;0.28222;0.29379;0.3093;0.33042;0.35993;0.39738;0.44397;0.49656;0.55142;0.60165;0.64662;0.68003;0.70485;0.72139;0.72916;0.73775;0.74108;0.74226;0.74231;0.73614;0.72999;0.72263;0.71458;0.70582;0.69872;0.6906;0.68115;0.67554;0.66883;0.6638;0.66;0.6562;0.65424;0.65186;0.64939;0.64568;0.64036;0.6349;0.62755;0.61813;0.60968;0.59811;0.58777;0.57592;0.56499;0.55522;0.5471;0.5364;0.52861;0.52151;0.51549
0.13972;0.13885;0.13869;0.1399;0.14089;0.14447;0.14947;0.15546;0.16196;0.16729;0.17088;0.1729;0.17397;0.17365;0.17339;0.17266;0.17225;0.17034;0.16954;0.16761;0.16656;0.16551;0.16453;0.16354;0.16282;0.16197;0.16118;0.16106;0.16104;0.16153;0.16199;0.16223;0.16334;0.16548;0.16846;0.17412;0.18316;0.1954;0.20884;0.22412;0.23906;0.25199;0.2641;0.27607;0.2873;0.29777;0.30396;0.30799;0.30739;0.30267;0.29577;0.28792;0.27947;0.27443;0.26938;0.26635;0.26444;0.26349;0.26238;0.26113;0.25978;0.25864;0.25688;0.25577;0.25644;0.25711;0.26057;0.26488;0.27199;0.27969;0.2901;0.30343;0.31884;0.33436;0.34996;0.36531;0.37841;0.39228;0.40527;0.42419;0.44821;0.48217;0.52429;0.57644;0.63524;0.69267;0.74717;0.79398;0.82969;0.85481;0.86921;0.87855;0.8874;0.89109;0.88998;0.89086;0.88299;0.87568;0.86843;0.86108;0.8503;0.84149;0.83384;0.8254;0.81688;0.81203;0.80653;0.80423;0.80143;0.79714;0.79472;0.79199;0.78857;0.78384;0.7783;0.76961;0.7604;0.7492;0.73813;0.72574;0.71286;0.7031;0.68977;0.68046;0.66901;0.66144;0.65234;0.64642
0.17177;0.17071;0.16979;0.17081;0.17198;0.17523;0.18013;0.18571;0.19239;0.19815;0.20148;0.20345;0.20418;0.2042;0.20355;0.20276;0.20152;0.20014;0.19887;0.19689;0.19586;0.19471;0.19376;0.19264;0.19202;0.19112;0.19033;0.19019;0.19024;0.19007;0.19077;0.19103;0.19185;0.19439;0.1971;0.20255;0.21129;0.22368;0.23734;0.25321;0.26794;0.28157;0.29397;0.3063;0.31754;0.32844;0.33497;0.33898;0.33798;0.3336;0.3264;0.31807;0.30978;0.3049;0.29929;0.29648;0.29408;0.29291;0.29233;0.29073;0.28945;0.28794;0.28568;0.28514;0.28533;0.28558;0.28965;0.29382;0.30081;0.30937;0.31973;0.33345;0.34946;0.36501;0.38183;0.3975;0.41099;0.42445;0.43851;0.45741;0.48147;0.51769;0.56087;0.61457;0.6741;0.7346;0.79058;0.83746;0.87507;0.90138;0.91684;0.92569;0.933;0.93899;0.93656;0.93943;0.92895;0.9235;0.91353;0.90564;0.89453;0.8869;0.87997;0.87076;0.86297;0.85615;0.85149;0.84872;0.84447;0.84026;0.83779;0.83571;0.83179;0.8269;0.82088;0.81227;0.80335;0.79168;0.7809;0.76906;0.75543;0.74447;0.73165;0.72236;0.71082;0.703;0.69382;0.68799
0.139;0.13781;0.13751;0.13809;0.13945;0.14284;0.14778;0.15319;0.16007;0.16555;0.16926;0.17122;0.17212;0.17217;0.17175;0.17119;0.17013;0.16854;0.16764;0.16554;0.16432;0.16339;0.16232;0.16126;0.1605;0.15954;0.15863;0.15861;0.15849;0.15885;0.15965;0.15982;0.16099;0.16321;0.16588;0.17207;0.18118;0.19362;0.20742;0.22339;0.23841;0.25197;0.26439;0.2764;0.28842;0.29859;0.30495;0.30942;0.30865;0.30375;0.29649;0.28814;0.2795;0.27384;0.26865;0.26536;0.26354;0.26248;0.26166;0.26012;0.25896;0.25751;0.25549;0.25491;0.25506;0.25557;0.25917;0.26381;0.27097;0.27916;0.2897;0.30305;0.31836;0.33386;0.35026;0.36572;0.37906;0.39277;0.40644;0.42515;0.44935;0.4827;0.52473;0.57765;0.63606;0.69454;0.74897;0.79609;0.83179;0.85705;0.87354;0.88138;0.89077;0.89509;0.89413;0.89507;0.88728;0.88086;0.87296;0.86463;0.85482;0.84621;0.83851;0.8298;0.82254;0.81661;0.81142;0.80848;0.80403;0.8019;0.79851;0.79667;0.79294;0.78777;0.78112;0.77382;0.76362;0.75172;0.74329;0.72967;0.71639;0.70591;0.69511;0.68433;0.67377;0.66558;0.65895;0.65135
0.13064;0.12982;0.1299;0.13086;0.13259;0.13593;0.14053;0.1457;0.15213;0.15766;0.16118;0.16311;0.16408;0.16447;0.16411;0.16361;0.16249;0.1613;0.16045;0.15868;0.15795;0.15693;0.15616;0.15525;0.15464;0.15402;0.15312;0.15308;0.15303;0.15326;0.15393;0.15435;0.15527;0.15751;0.16005;0.16533;0.17406;0.18576;0.19842;0.21289;0.2273;0.2401;0.25165;0.26295;0.27364;0.28372;0.28994;0.29357;0.29329;0.28921;0.28172;0.27436;0.26658;0.26138;0.25671;0.25336;0.25175;0.25081;0.25003;0.24864;0.24749;0.24624;0.24486;0.24424;0.24445;0.24519;0.24806;0.25247;0.25937;0.267;0.27668;0.28937;0.30401;0.31887;0.33433;0.34904;0.36144;0.37474;0.38797;0.40512;0.42832;0.46157;0.50227;0.55304;0.60955;0.66743;0.71933;0.76453;0.79938;0.8248;0.84114;0.8489;0.85604;0.85957;0.86052;0.86103;0.853;0.84749;0.83961;0.83055;0.82086;0.81411;0.80623;0.79757;0.78981;0.78462;0.78071;0.77681;0.77307;0.77037;0.76753;0.76583;0.76184;0.75788;0.75135;0.74293;0.73443;0.72405;0.71311;0.70145;0.68927;0.67862;0.66668;0.65785;0.64611;0.6385;0.62977;0.62359
0.09494;0.09432;0.09487;0.0955;0.09711;0.10035;0.10485;0.1101;0.1164;0.12187;0.12539;0.12729;0.12854;0.1284;0.1284;0.12782;0.12694;0.12574;0.12484;0.12316;0.12225;0.12148;0.12072;0.11968;0.11907;0.11881;0.1179;0.11776;0.11777;0.11807;0.11887;0.11884;0.12014;0.12214;0.12468;0.12992;0.13835;0.14945;0.16198;0.1763;0.19017;0.2025;0.21405;0.22546;0.23638;0.24642;0.25248;0.25653;0.25603;0.25168;0.24498;0.23752;0.22971;0.22463;0.21999;0.21721;0.21534;0.21452;0.21392;0.21273;0.21157;0.21024;0.2085;0.20827;0.20843;0.20876;0.21198;0.21652;0.22317;0.23056;0.24031;0.25331;0.26787;0.28297;0.29865;0.31306;0.32597;0.33919;0.3521;0.37026;0.39359;0.42758;0.46997;0.52272;0.58256;0.64224;0.69786;0.74578;0.78336;0.80957;0.8268;0.83644;0.84351;0.84732;0.84705;0.8474;0.83993;0.83336;0.82527;0.81611;0.8068;0.79745;0.79034;0.78097;0.77472;0.76824;0.76265;0.75984;0.75648;0.75285;0.75181;0.74746;0.74414;0.73973;0.73323;0.72404;0.7151;0.703;0.69176;0.68025;0.66699;0.65501;0.64178;0.63263;0.62028;0.61177;0.60227;0.5959
-0.00544;-0.00598;-0.00618;-0.00599;-0.00422;-0.0014;0.00264;0.00767;0.01337;0.01814;0.02152;0.02344;0.02441;0.02463;0.02463;0.02465;0.02334;0.0222;0.0207;0.01979;0.01909;0.01793;0.01751;0.0168;0.01616;0.01543;0.01525;0.01472;0.0148;0.01517;0.01517;0.0162;0.01698;0.01868;0.02155;0.02652;0.03424;0.04482;0.05659;0.06978;0.08226;0.09403;0.1054;0.11542;0.12558;0.13484;0.14057;0.14394;0.1434;0.13959;0.13338;0.12635;0.11983;0.11449;0.11014;0.10801;0.10606;0.10506;0.10447;0.10359;0.10281;0.10171;0.1;0.09932;0.09942;0.10057;0.10318;0.10725;0.1125;0.11993;0.12959;0.14116;0.15426;0.16829;0.18248;0.19578;0.20806;0.2198;0.23214;0.24775;0.26994;0.30062;0.33908;0.3875;0.4431;0.49885;0.55223;0.5988;0.63417;0.66045;0.67655;0.68509;0.6918;0.69533;0.6969;0.69577;0.68886;0.68257;0.67493;0.66679;0.65715;0.64941;0.64179;0.63315;0.6256;0.61973;0.61489;0.6111;0.60766;0.60592;0.60432;0.60174;0.59673;0.5929;0.58701;0.57799;0.5689;0.55907;0.5482;0.53669;0.52468;0.51324;0.50258;0.49352;0.48159;0.47478;0.46706;0.46048
-0.01942;-0.02003;-0.0199;-0.0197;-0.01819;-0.01511;-0.01097;-0.00554;0.00041;0.00546;0.00888;0.01112;0.01194;0.01202;0.01217;0.01206;0.01125;0.00993;0.00863;0.00771;0.00683;0.00579;0.00522;0.00443;0.00336;0.00262;0.00273;0.00247;0.00239;0.00268;0.00266;0.00377;0.0044;0.00624;0.00909;0.01441;0.0221;0.0329;0.04514;0.05862;0.0715;0.08389;0.09518;0.10528;0.11616;0.12527;0.13118;0.13432;0.13404;0.13022;0.12365;0.11639;0.10952;0.1044;0.09963;0.09702;0.09528;0.0941;0.09335;0.09239;0.09128;0.09046;0.08906;0.08823;0.08801;0.08921;0.09208;0.09577;0.10138;0.10905;0.11868;0.13048;0.14348;0.15772;0.1719;0.18536;0.19779;0.20955;0.22151;0.23693;0.2584;0.28874;0.32548;0.37144;0.42388;0.47576;0.52558;0.5681;0.60035;0.62392;0.64;0.64777;0.6547;0.65795;0.65921;0.65821;0.65328;0.64757;0.64028;0.63278;0.62466;0.61736;0.61078;0.60239;0.59599;0.5897;0.58597;0.582;0.5795;0.57768;0.57572;0.57329;0.56932;0.56559;0.56011;0.55251;0.54307;0.53565;0.52451;0.51443;0.50276;0.49308;0.48305;0.47397;0.46439;0.45738;0.45041;0.44455
0.10817;0.10672;0.10615;0.10695;0.10786;0.11121;0.11472;0.12058;0.12669;0.13198;0.13496;0.13721;0.13817;0.13775;0.13736;0.13712;0.13602;0.13431;0.13289;0.13166;0.13069;0.12931;0.12846;0.12775;0.12671;0.1259;0.12552;0.12528;0.12495;0.12496;0.12531;0.12598;0.12682;0.1291;0.13165;0.1373;0.14598;0.1572;0.17034;0.1847;0.19867;0.21162;0.22392;0.23476;0.24617;0.25593;0.2623;0.26575;0.26542;0.26106;0.25449;0.24643;0.23858;0.23253;0.22763;0.22477;0.22236;0.22129;0.22051;0.21887;0.21829;0.21693;0.21496;0.21403;0.21443;0.21477;0.21779;0.22181;0.22838;0.23599;0.24633;0.2587;0.27297;0.28821;0.30331;0.31781;0.3313;0.34407;0.35665;0.37379;0.39707;0.42973;0.46912;0.5188;0.57539;0.63185;0.68529;0.72921;0.7636;0.78849;0.80595;0.81212;0.82081;0.82372;0.8248;0.82409;0.81697;0.81101;0.8035;0.79491;0.78564;0.77784;0.77158;0.7611;0.75496;0.74804;0.74395;0.74069;0.73559;0.73522;0.73285;0.72922;0.72548;0.72094;0.71594;0.70649;0.69812;0.68863;0.67741;0.66803;0.65513;0.64473;0.63351;0.6251;0.61407;0.60725;0.59831;0.59253
0.03223;0.03103;0.03059;0.03054;0.03194;0.03442;0.03847;0.04406;0.04969;0.05489;0.05802;0.06002;0.06077;0.06034;0.06058;0.06018;0.0589;0.05737;0.0559;0.05476;0.05361;0.05269;0.05144;0.05063;0.05;0.04906;0.04865;0.04825;0.04821;0.04815;0.04828;0.04915;0.04961;0.05184;0.05453;0.06;0.0679;0.07888;0.09159;0.10538;0.11829;0.13083;0.14237;0.15269;0.16298;0.1724;0.17819;0.18157;0.1811;0.17733;0.17109;0.16371;0.15694;0.15175;0.14689;0.14428;0.14237;0.14106;0.14066;0.13932;0.13826;0.13728;0.13561;0.13435;0.13474;0.13555;0.13824;0.14231;0.14804;0.15557;0.16545;0.17735;0.19071;0.20471;0.21923;0.23297;0.24527;0.25703;0.26847;0.2839;0.30542;0.33454;0.37096;0.41598;0.46674;0.51807;0.56591;0.6058;0.63755;0.65921;0.6749;0.68194;0.6888;0.692;0.69223;0.69244;0.68625;0.68105;0.67418;0.66731;0.65928;0.65153;0.64484;0.63652;0.63031;0.62494;0.6216;0.61702;0.61469;0.61267;0.61097;0.60928;0.60491;0.60119;0.59633;0.58819;0.58042;0.57145;0.56204;0.5528;0.54188;0.53121;0.52166;0.51374;0.50403;0.49719;0.48954;0.48449
-0.02203;-0.02282;-0.02213;-0.02194;-0.02001;-0.01668;-0.0126;-0.00695;-9e-04;0.00412;0.00758;0.01;0.01096;0.01105;0.01139;0.01126;0.01048;0.00927;0.00816;0.00742;0.00669;0.0058;0.00527;0.0048;0.00394;0.00327;0.00318;0.00303;0.00317;0.00332;0.00359;0.00454;0.00531;0.00714;0.00991;0.01485;0.02238;0.0328;0.04455;0.05701;0.06972;0.08177;0.0928;0.10307;0.1133;0.12242;0.12841;0.13191;0.13138;0.12789;0.12158;0.11451;0.10815;0.10312;0.09853;0.09642;0.09506;0.0939;0.09345;0.09228;0.09149;0.09035;0.08924;0.08839;0.08843;0.08946;0.09229;0.09616;0.10178;0.10894;0.11849;0.12984;0.14286;0.15643;0.17082;0.18396;0.19615;0.20785;0.21979;0.23539;0.25784;0.28845;0.32696;0.37608;0.43182;0.4892;0.54453;0.59057;0.62691;0.65325;0.67091;0.68041;0.68821;0.69087;0.6923;0.69152;0.68502;0.67787;0.67059;0.66176;0.65313;0.64397;0.63627;0.62641;0.6194;0.61401;0.60982;0.60526;0.60192;0.60046;0.59925;0.5958;0.59129;0.58674;0.5813;0.57252;0.56249;0.55311;0.54171;0.52998;0.51757;0.50556;0.49455;0.48519;0.47396;0.4663;0.45774;0.45094
0.0568;0.0558;0.05525;0.05573;0.05745;0.06057;0.06469;0.06966;0.07558;0.08065;0.08402;0.08615;0.08708;0.08734;0.08638;0.08569;0.0852;0.08416;0.08322;0.08154;0.08086;0.08037;0.07944;0.07859;0.07822;0.07795;0.0773;0.07747;0.07772;0.0777;0.07844;0.07933;0.08014;0.08237;0.08497;0.09034;0.09785;0.10862;0.12145;0.13496;0.14842;0.1601;0.17067;0.18093;0.19105;0.20087;0.20696;0.21092;0.21115;0.2073;0.20098;0.19323;0.1862;0.18117;0.17701;0.17407;0.17195;0.17157;0.1705;0.1696;0.1684;0.16752;0.16588;0.16547;0.16604;0.1668;0.16962;0.17394;0.18066;0.18822;0.19787;0.20968;0.22341;0.23772;0.2517;0.26505;0.27733;0.28958;0.3017;0.31869;0.34128;0.37288;0.41201;0.46086;0.51551;0.56952;0.62053;0.66338;0.6951;0.71892;0.73332;0.74127;0.74775;0.7514;0.75098;0.74991;0.74249;0.7359;0.72891;0.72043;0.7104;0.70297;0.69597;0.68692;0.68053;0.67504;0.67076;0.6664;0.66333;0.66219;0.66004;0.6583;0.65476;0.64995;0.64459;0.63616;0.6273;0.61807;0.60897;0.59778;0.58579;0.57557;0.56712;0.557;0.54786;0.54115;0.53345;0.52776
0.10878;0.10772;0.10623;0.10759;0.10886;0.11276;0.11713;0.12262;0.12896;0.13466;0.138;0.14043;0.14158;0.142;0.14083;0.14009;0.13919;0.1377;0.13642;0.13431;0.13364;0.13263;0.13119;0.13061;0.12973;0.12892;0.12834;0.12807;0.12806;0.12803;0.12874;0.12968;0.12995;0.13235;0.13523;0.1411;0.14982;0.16159;0.17634;0.19158;0.20677;0.21991;0.23207;0.24373;0.25514;0.26609;0.27296;0.27672;0.2769;0.2719;0.26485;0.25637;0.24846;0.24268;0.23837;0.2349;0.23275;0.23176;0.23091;0.22977;0.22845;0.22736;0.22496;0.22436;0.22534;0.2257;0.22897;0.23389;0.24135;0.24921;0.26014;0.2739;0.28878;0.30455;0.32008;0.33499;0.34866;0.36264;0.37564;0.39414;0.41837;0.45361;0.49622;0.54892;0.60659;0.66478;0.71949;0.76766;0.80195;0.8296;0.84665;0.85683;0.86321;0.86692;0.86713;0.8677;0.86112;0.85352;0.84609;0.83637;0.82762;0.82017;0.81144;0.80344;0.79737;0.78952;0.78491;0.78238;0.7773;0.7778;0.77396;0.77066;0.76645;0.76318;0.75608;0.74869;0.73775;0.72774;0.71672;0.70515;0.69184;0.67921;0.66861;0.65958;0.64793;0.64014;0.63263;0.62528
0.15828;0.15751;0.15571;0.15688;0.15859;0.16213;0.16646;0.17201;0.17889;0.18441;0.18787;0.19046;0.1913;0.19166;0.19063;0.18952;0.18839;0.18704;0.18575;0.18391;0.18273;0.18176;0.18029;0.17941;0.17843;0.17808;0.17701;0.17702;0.17672;0.17666;0.17743;0.17791;0.17857;0.18088;0.18389;0.18967;0.1981;0.21034;0.22518;0.2408;0.25582;0.26947;0.2815;0.29349;0.30523;0.31609;0.32272;0.32621;0.32668;0.32177;0.31434;0.3062;0.29787;0.29208;0.28771;0.28466;0.28198;0.28119;0.2801;0.27834;0.27778;0.27635;0.27418;0.27345;0.27418;0.27481;0.27786;0.28307;0.29084;0.29884;0.30913;0.32294;0.33895;0.35487;0.37063;0.38584;0.39939;0.4135;0.427;0.44555;0.47083;0.50708;0.55136;0.60568;0.66711;0.72675;0.7862;0.8345;0.87295;0.90257;0.91909;0.93052;0.93581;0.94024;0.94077;0.94063;0.93498;0.92526;0.91823;0.9077;0.89734;0.89039;0.87972;0.87033;0.86472;0.85798;0.85312;0.84952;0.84386;0.8426;0.83974;0.83721;0.83371;0.82949;0.82137;0.81318;0.80223;0.79093;0.77788;0.76652;0.75159;0.73911;0.72767;0.71803;0.70565;0.69732;0.68821;0.68024
0.0903;0.08991;0.08886;0.08944;0.09123;0.09481;0.09935;0.1047;0.11118;0.11664;0.12026;0.12226;0.12374;0.12395;0.12302;0.12208;0.12169;0.12026;0.119;0.11735;0.11623;0.11552;0.11421;0.11374;0.1127;0.11228;0.11148;0.11136;0.11152;0.11152;0.11242;0.11293;0.11362;0.11562;0.11871;0.12436;0.13231;0.14414;0.1579;0.17287;0.18704;0.2;0.21135;0.22302;0.2341;0.2445;0.25157;0.25474;0.25495;0.25016;0.24308;0.23557;0.22824;0.22256;0.21811;0.21522;0.21298;0.2127;0.21159;0.21055;0.2094;0.20807;0.20604;0.20554;0.2061;0.20693;0.21014;0.21493;0.22157;0.22939;0.24002;0.25369;0.2681;0.28364;0.29855;0.31311;0.32603;0.33939;0.35213;0.36976;0.39366;0.42814;0.47026;0.52193;0.579;0.6365;0.69108;0.73757;0.7722;0.80039;0.81605;0.82557;0.8321;0.83669;0.83708;0.83655;0.8305;0.82382;0.81552;0.80682;0.79616;0.78861;0.77994;0.77177;0.76494;0.75905;0.75576;0.7515;0.74773;0.74635;0.74354;0.74254;0.73828;0.73347;0.72703;0.71835;0.70805;0.69762;0.68619;0.67556;0.66096;0.65082;0.63989;0.62954;0.61874;0.61033;0.60148;0.59459
0.11745;0.11661;0.11517;0.11577;0.11704;0.12016;0.12434;0.12955;0.13599;0.14137;0.14452;0.1465;0.14738;0.14742;0.1466;0.1457;0.14481;0.1434;0.14204;0.14021;0.13915;0.13811;0.13689;0.13594;0.13535;0.13469;0.13397;0.13344;0.13348;0.13355;0.13412;0.13478;0.13508;0.13755;0.14086;0.14603;0.15384;0.16573;0.17976;0.19429;0.20889;0.22155;0.23341;0.24492;0.25578;0.26611;0.27259;0.27653;0.27665;0.27198;0.26482;0.25708;0.24946;0.24384;0.23975;0.23665;0.23448;0.23421;0.23331;0.23185;0.23091;0.22953;0.22751;0.227;0.22762;0.22824;0.2315;0.23625;0.24368;0.25136;0.26199;0.27477;0.28958;0.30515;0.32064;0.33422;0.3474;0.36111;0.37398;0.39178;0.41537;0.44933;0.49062;0.54201;0.59743;0.65321;0.70577;0.75129;0.78434;0.81007;0.8254;0.83577;0.84197;0.84424;0.8457;0.84603;0.83949;0.83184;0.82522;0.81743;0.80639;0.80026;0.79175;0.78335;0.77877;0.77199;0.76761;0.76423;0.76141;0.76013;0.75636;0.75475;0.75255;0.74766;0.74121;0.73285;0.72234;0.7136;0.70326;0.6909;0.67862;0.6675;0.65729;0.64826;0.63718;0.62914;0.62101;0.61526
0.017;0.01693;0.01696;0.01756;0.01927;0.02267;0.02732;0.03279;0.03855;0.04347;0.04686;0.04945;0.04974;0.05036;0.04983;0.04917;0.04819;0.04725;0.04599;0.04479;0.0438;0.04306;0.04189;0.04166;0.04083;0.04043;0.04006;0.04016;0.03992;0.04023;0.04091;0.04152;0.0423;0.04408;0.04644;0.05208;0.05946;0.07063;0.08303;0.09658;0.10957;0.1215;0.13183;0.14224;0.15253;0.16204;0.16789;0.17183;0.17156;0.16799;0.16159;0.15481;0.14787;0.14303;0.13849;0.13537;0.1337;0.13274;0.13229;0.13146;0.13009;0.12904;0.12726;0.12649;0.12742;0.12823;0.13068;0.13485;0.14175;0.14897;0.15884;0.17105;0.18475;0.19939;0.21414;0.22762;0.23962;0.25294;0.26491;0.28204;0.30611;0.33857;0.37903;0.42834;0.48409;0.53824;0.5895;0.6323;0.66574;0.68898;0.70363;0.71279;0.71809;0.72218;0.72155;0.72157;0.71418;0.70856;0.70067;0.69171;0.68347;0.67455;0.66764;0.65979;0.6519;0.64595;0.64261;0.639;0.63659;0.63451;0.63225;0.62972;0.6263;0.62217;0.61663;0.60901;0.60029;0.58927;0.57914;0.56803;0.55674;0.54508;0.53449;0.52533;0.51565;0.50738;0.49916;0.49263
