

1100;1105;1110;1115;1120;1125;1130;1135;1140;1145;1150;1155;1160;1165;1170;1175;1180;1185;1190;1195;1200;1205;1210;1215;1220;1225;1230;1235;1240;1245;1250;1255;1260;1265;1270;1275;1280;1285;1290;1295;1301;1306;1311;1316;1321;1326;1331;1336;1341;1346;1351;1356;1361;1366;1371;1376;1381;1386;1391;1396;1401;1406;1411;1416;1421;1426;1431;1436;1441;1446;1451;1456;1461;1466;1471;1476;1481;1486;1491;1496;1502;1507;1512;1517;1522;1527;1532;1537;1542;1547;1552;1557;1562;1567;1572;1577;1582;1587;1592;1597;1602;1607;1612;1617;1622;1627;1632;1637;1642;1647;1652;1657;1662;1667;1672;1677;1682;1687;1692;1697;1703;1708;1713;1718;1723;1728;1733;1738;1743;1748;1753;1758;1763;1768;1773;1778;1783;1788;1793;1798;1803;1808;1813;1818;1823;1828;1833;1838;1843;1848;1853;1858;1863;1868;1873;1878;1883;1888;1893;1898;1904;1909;1914;1919;1924;1929;1934;1939;1944;1949;1954;1959;1964;1969;1974;1979;1984;1989;1994;1999;2004;2009;2014;2019;2024;2029;2034;2039;2044;2049;2054;2059;2064;2069;2074;2079;2084;2089;2094;2100
0.518998;0.520315;0.522893;0.521050;0.523650;0.525576;0.527533;0.528062;0.530875;0.534004;0.534417;0.538010;0.538474;0.537634;0.542157;0.545047;0.546666;0.550181;0.550957;0.550462;0.557261;0.559165;0.561440;0.565034;0.563677;0.569741;0.573231;0.575209;0.575045;0.576154;0.579790;0.580435;0.590235;0.585387;0.594129;0.595721;0.597149;0.602298;0.602081;0.609087;0.610689;0.611623;0.621275;0.623025;0.622867;0.629605;0.633002;0.633886;0.639977;0.642513;0.645531;0.649266;0.650881;0.654157;0.663252;0.662411;0.662974;0.668354;0.668115;0.680346;0.683501;0.682547;0.687727;0.686791;0.693022;0.692641;0.700716;0.701824;0.706439;0.709432;0.713311;0.715417;0.715230;0.719202;0.721030;0.718523;0.726132;0.724094;0.728385;0.729888;0.736735;0.728664;0.734901;0.735000;0.732562;0.734143;0.737169;0.743391;0.744248;0.743004;0.735863;0.742772;0.738647;0.741007;0.742434;0.741405;0.741503;0.740600;0.740515;0.737143;0.736613;0.740508;0.737783;0.736064;0.740145;0.737158;0.735804;0.730867;0.729359;0.733179;0.733119;0.731161;0.733796;0.732769;0.727092;0.728250;0.726276;0.726125;0.727382;0.726961;0.730211;0.724053;0.725919;0.723969;0.722344;0.721816;0.722047;0.716842;0.717820;0.717576;0.715741;0.714100;0.717070;0.716342;0.712398;0.709162;0.707845;0.710065;0.710751;0.707079;0.709260;0.705988;0.701596;0.699903;0.703838;0.696823;0.694061;0.697588;0.694517;0.688444;0.689675;0.690400;0.690674;0.686639;0.680210;0.679819;0.682901;0.676604;0.671272;0.673300;0.672053;0.665812;0.664192;0.659603;0.658216;0.656189;0.650490;0.649439;0.642867;0.640128;0.640531;0.631633;0.631799;0.628614;0.624065;0.618520;0.615077;0.609615;0.609278;0.602462;0.602125;0.598725;0.595240;0.588399;0.588593;0.586651;0.581784;0.574937;0.570317;0.572223;0.565620;0.562099;0.560478;0.557783;0.553464;0.550553;0.549262;0.545857;0.542229;0.540050
0.557244;0.553550;0.559269;0.569022;0.568682;0.575901;0.576840;0.581044;0.587516;0.587120;0.589494;0.596729;0.599248;0.612626;0.614414;0.616823;0.623881;0.627183;0.634826;0.634552;0.636662;0.640564;0.650689;0.653764;0.658907;0.664030;0.667646;0.671426;0.674825;0.680989;0.681881;0.686284;0.685152;0.693520;0.689567;0.697237;0.694540;0.697548;0.698859;0.700333;0.698196;0.701482;0.699606;0.699332;0.702966;0.700021;0.698107;0.692361;0.693787;0.691743;0.696622;0.687307;0.688965;0.690852;0.684581;0.676471;0.679714;0.670154;0.665148;0.667313;0.663660;0.655692;0.660299;0.656245;0.648036;0.646041;0.639630;0.642007;0.632559;0.637107;0.631325;0.624410;0.623919;0.622636;0.619134;0.611333;0.612570;0.606460;0.603079;0.603907;0.603781;0.599786;0.596620;0.596566;0.594624;0.594594;0.592927;0.595670;0.592440;0.597216;0.593929;0.595484;0.584830;0.592760;0.588658;0.591160;0.587074;0.595445;0.592362;0.586975;0.597300;0.591983;0.597420;0.596886;0.601946;0.601984;0.602276;0.599119;0.607919;0.605764;0.608995;0.614300;0.616049;0.617552;0.617497;0.618491;0.625062;0.627799;0.625495;0.631682;0.634150;0.640733;0.640208;0.642489;0.640843;0.651407;0.652851;0.655687;0.657834;0.665391;0.665313;0.668043;0.670463;0.673995;0.683030;0.681178;0.688354;0.694705;0.689367;0.693061;0.697186;0.704230;0.701159;0.703733;0.707308;0.708550;0.709061;0.714271;0.717495;0.716185;0.719149;0.716641;0.719321;0.720637;0.721723;0.718553;0.718210;0.716712;0.715938;0.721054;0.718909;0.715482;0.711458;0.710022;0.706396;0.703240;0.703082;0.700869;0.690720;0.689125;0.686359;0.682123;0.680193;0.677376;0.671260;0.668655;0.659778;0.657362;0.651835;0.644214;0.642518;0.632148;0.627709;0.623502;0.619123;0.611281;0.606096;0.599767;0.599455;0.592416;0.588081;0.584046;0.580758;0.575815;0.571048;0.566001;0.562894;0.555340;0.550831;0.549929
0.528044;0.534785;0.534388;0.536488;0.541743;0.542184;0.543742;0.544963;0.551523;0.553395;0.557328;0.560846;0.559982;0.566118;0.568733;0.570223;0.574822;0.575375;0.576808;0.580925;0.585640;0.589322;0.596167;0.592619;0.600296;0.603452;0.604400;0.604582;0.607275;0.610312;0.616185;0.621855;0.621005;0.624086;0.626555;0.632698;0.632325;0.636772;0.638583;0.639233;0.640180;0.644760;0.644379;0.653703;0.649852;0.650758;0.654014;0.657396;0.654743;0.654886;0.657914;0.667060;0.664266;0.664880;0.668609;0.671519;0.666856;0.668416;0.669391;0.674672;0.674675;0.672500;0.681741;0.679343;0.679068;0.682818;0.682132;0.686027;0.687421;0.685511;0.685866;0.689083;0.689972;0.696078;0.698456;0.694524;0.700746;0.698706;0.704296;0.706967;0.708561;0.708374;0.705378;0.709978;0.717701;0.719043;0.720347;0.722374;0.726367;0.726844;0.727734;0.731208;0.734913;0.734164;0.739145;0.743901;0.743792;0.746377;0.748840;0.755365;0.754165;0.755631;0.753865;0.753954;0.758760;0.759477;0.759244;0.762568;0.764514;0.765480;0.760978;0.765729;0.766192;0.769423;0.767171;0.765975;0.764685;0.769579;0.760912;0.766138;0.769664;0.767644;0.763681;0.758567;0.758698;0.752886;0.752603;0.758160;0.747033;0.747871;0.736741;0.737200;0.738337;0.736304;0.727460;0.721213;0.723405;0.718332;0.712465;0.708491;0.703556;0.702889;0.695990;0.694136;0.690383;0.681696;0.676955;0.675113;0.673511;0.668628;0.661074;0.658713;0.652377;0.651305;0.643757;0.637008;0.638077;0.634498;0.630347;0.626439;0.617725;0.613393;0.615335;0.608389;0.601929;0.599002;0.601782;0.594820;0.593761;0.591085;0.581944;0.582329;0.577637;0.576754;0.572336;0.571208;0.565588;0.562653;0.561023;0.555216;0.555973;0.555289;0.553068;0.547786;0.548418;0.544588;0.542182;0.542499;0.537354;0.535999;0.534657;0.533047;0.530356;0.530774;0.528361;0.525670;0.524310;0.523137;0.518579;0.520233
0.539828;0.546009;0.536760;0.546055;0.546239;0.550660;0.556311;0.554304;0.562216;0.562210;0.571763;0.565791;0.577757;0.580215;0.579524;0.587090;0.589185;0.591173;0.596738;0.598899;0.606606;0.605952;0.605884;0.621398;0.622016;0.621862;0.627015;0.628923;0.628838;0.634338;0.634302;0.639418;0.641780;0.646534;0.650011;0.648601;0.657884;0.652593;0.655500;0.662591;0.657051;0.666205;0.667143;0.667618;0.666067;0.672769;0.669000;0.676485;0.674364;0.671600;0.671349;0.672483;0.679100;0.672232;0.677494;0.676561;0.677195;0.675391;0.678004;0.672108;0.673854;0.673041;0.669717;0.675885;0.677904;0.674198;0.675404;0.672687;0.672651;0.672644;0.676248;0.671368;0.669213;0.669731;0.673876;0.671284;0.676709;0.677873;0.674902;0.675751;0.672556;0.673187;0.671822;0.672243;0.673146;0.675138;0.672119;0.677539;0.680438;0.677368;0.678668;0.682496;0.677111;0.676568;0.680135;0.682636;0.685909;0.681957;0.685226;0.688717;0.686789;0.692262;0.691119;0.692040;0.690784;0.691398;0.693838;0.697666;0.699792;0.692788;0.698546;0.699774;0.698294;0.693473;0.705342;0.704204;0.706152;0.702989;0.701200;0.703297;0.704165;0.702595;0.704634;0.704304;0.710251;0.706807;0.701212;0.701854;0.706924;0.709678;0.703670;0.701918;0.701062;0.702007;0.703480;0.701457;0.702132;0.697790;0.699237;0.695074;0.699532;0.695307;0.697682;0.686918;0.688379;0.696220;0.689441;0.687895;0.685587;0.681082;0.685502;0.680970;0.677841;0.672072;0.674465;0.671828;0.671632;0.668981;0.668906;0.662158;0.666575;0.658149;0.654521;0.648342;0.647796;0.645842;0.642089;0.639933;0.636558;0.634555;0.632387;0.621965;0.624186;0.616226;0.616284;0.612573;0.608020;0.605437;0.600075;0.593545;0.590363;0.587588;0.588990;0.584404;0.579219;0.570036;0.566870;0.566902;0.566125;0.560866;0.556746;0.554823;0.553648;0.546786;0.547502;0.544084;0.542713;0.536327;0.539277;0.533286
0.521968;0.518928;0.520441;0.524128;0.526290;0.527315;0.529636;0.529821;0.532461;0.536326;0.536691;0.535654;0.537506;0.542215;0.541861;0.547201;0.549117;0.545174;0.554006;0.555668;0.557877;0.555314;0.558183;0.559525;0.563844;0.567889;0.569277;0.569269;0.572623;0.575982;0.576666;0.578171;0.585112;0.579980;0.579024;0.585673;0.588637;0.585461;0.592780;0.593065;0.596362;0.599564;0.597331;0.600303;0.602954;0.605869;0.604362;0.607682;0.608163;0.608652;0.607061;0.609147;0.614699;0.612932;0.611462;0.615172;0.617099;0.618620;0.620747;0.623053;0.623380;0.622059;0.626881;0.625262;0.623340;0.629103;0.631477;0.631772;0.632299;0.633986;0.636941;0.640073;0.638776;0.643009;0.644988;0.645470;0.646848;0.650362;0.644598;0.654232;0.653262;0.658242;0.658811;0.666749;0.664278;0.669674;0.667848;0.671748;0.673467;0.680870;0.676267;0.677574;0.681763;0.684989;0.688154;0.690539;0.694235;0.703807;0.699167;0.702576;0.702720;0.702356;0.711504;0.711986;0.720323;0.720510;0.718296;0.725834;0.728776;0.728503;0.734835;0.730809;0.733012;0.736557;0.740813;0.739878;0.745240;0.743778;0.751022;0.750002;0.749210;0.750543;0.752176;0.756874;0.758118;0.759517;0.758522;0.757117;0.762120;0.762898;0.762685;0.760740;0.767015;0.762408;0.763674;0.764972;0.764972;0.763085;0.764577;0.762589;0.759558;0.758103;0.760977;0.760032;0.758021;0.757531;0.756210;0.750102;0.752334;0.752946;0.747492;0.751127;0.743725;0.741611;0.738706;0.740051;0.737582;0.731563;0.730915;0.730860;0.727710;0.714939;0.718429;0.709119;0.713596;0.703409;0.701654;0.694046;0.690362;0.687385;0.682519;0.682571;0.670114;0.670201;0.667398;0.658840;0.652387;0.653205;0.647026;0.642748;0.634842;0.630943;0.626907;0.620122;0.618407;0.610078;0.608485;0.603523;0.601235;0.597451;0.591582;0.587345;0.586734;0.577134;0.573513;0.573682;0.565684;0.562447;0.556221;0.559675
0.583637;0.584195;0.592977;0.599415;0.596993;0.608797;0.610378;0.618320;0.625492;0.634698;0.639177;0.644112;0.654227;0.661444;0.665274;0.674573;0.679888;0.692084;0.696160;0.699428;0.710100;0.712884;0.721903;0.728890;0.736860;0.737595;0.738607;0.747641;0.755408;0.760299;0.765097;0.770946;0.776391;0.778245;0.778234;0.781028;0.782969;0.782701;0.783197;0.793085;0.782787;0.784101;0.783561;0.785027;0.786832;0.778370;0.780675;0.773992;0.772261;0.768419;0.767205;0.752402;0.755638;0.753584;0.744053;0.738351;0.734110;0.727972;0.726207;0.714119;0.711371;0.697649;0.697131;0.690147;0.681653;0.674282;0.670575;0.666266;0.650579;0.652891;0.646172;0.636284;0.637522;0.627696;0.622763;0.618695;0.609874;0.611688;0.606465;0.597878;0.594201;0.594495;0.587634;0.582936;0.576508;0.577488;0.574241;0.577185;0.570664;0.568661;0.564612;0.563604;0.564266;0.563465;0.562248;0.558774;0.556554;0.563270;0.556955;0.563680;0.562607;0.565240;0.559977;0.561846;0.562867;0.565147;0.568313;0.572035;0.570267;0.569550;0.576329;0.576919;0.581195;0.577871;0.582823;0.582526;0.589028;0.589713;0.589008;0.597870;0.600918;0.605259;0.603816;0.609040;0.611007;0.611352;0.618017;0.619628;0.618626;0.627042;0.628684;0.633412;0.635569;0.637007;0.640806;0.642347;0.648744;0.650653;0.652639;0.655921;0.656034;0.661564;0.669247;0.667033;0.670543;0.676438;0.672270;0.672304;0.676514;0.677837;0.682521;0.675434;0.677742;0.679111;0.683895;0.683962;0.682782;0.687536;0.678158;0.679324;0.674234;0.680363;0.677913;0.673645;0.676050;0.671268;0.673274;0.667437;0.665105;0.658630;0.659983;0.657843;0.653069;0.649089;0.645305;0.644378;0.640501;0.632659;0.631177;0.624915;0.620533;0.614052;0.612717;0.607845;0.606140;0.605415;0.595183;0.600639;0.586609;0.582904;0.579913;0.577906;0.566096;0.567687;0.565232;0.562210;0.555654;0.554356;0.556215;0.547818
0.557630;0.561890;0.566827;0.566389;0.572882;0.576823;0.580662;0.586535;0.591881;0.595034;0.601453;0.603771;0.610215;0.618176;0.621824;0.625719;0.632238;0.638542;0.642020;0.647143;0.655656;0.655605;0.662923;0.662821;0.673348;0.679197;0.684264;0.684669;0.688579;0.688327;0.698876;0.700055;0.700002;0.711397;0.714128;0.712582;0.714079;0.718357;0.722670;0.722835;0.720000;0.724018;0.724221;0.728725;0.728762;0.725364;0.730316;0.726974;0.725241;0.722559;0.720013;0.718731;0.717212;0.715918;0.715987;0.713042;0.710719;0.707853;0.704636;0.702173;0.702663;0.696198;0.700949;0.691917;0.694537;0.684067;0.682014;0.680060;0.681367;0.670746;0.669480;0.670269;0.664252;0.662315;0.662569;0.660416;0.653904;0.655355;0.653523;0.649172;0.646781;0.642077;0.638695;0.642666;0.636933;0.636946;0.637932;0.631606;0.636122;0.631831;0.630150;0.628237;0.626415;0.626796;0.625906;0.623728;0.628196;0.626830;0.626421;0.626461;0.624272;0.623937;0.619668;0.622044;0.624255;0.627134;0.628567;0.625500;0.627576;0.625733;0.623923;0.628965;0.630422;0.627802;0.631207;0.628009;0.631710;0.634808;0.638096;0.636012;0.635110;0.634399;0.641802;0.640807;0.645740;0.646518;0.649338;0.647574;0.646586;0.653448;0.652114;0.656996;0.648769;0.651630;0.659719;0.661308;0.662963;0.664486;0.666721;0.668200;0.670684;0.669905;0.668860;0.673050;0.669779;0.673603;0.669636;0.672198;0.671042;0.674663;0.671200;0.676741;0.675845;0.675103;0.676503;0.677268;0.669746;0.673193;0.668961;0.672868;0.668839;0.666221;0.665967;0.666559;0.662120;0.659852;0.648781;0.652039;0.651064;0.644997;0.641329;0.642938;0.637221;0.631265;0.628407;0.627934;0.621060;0.614937;0.616094;0.611276;0.606876;0.598765;0.599913;0.594484;0.592099;0.588281;0.580254;0.575211;0.576218;0.568813;0.566253;0.568286;0.559656;0.562914;0.550192;0.554053;0.545871;0.542031;0.542085;0.537205
0.514768;0.517127;0.514665;0.517708;0.522126;0.522151;0.522438;0.520962;0.524316;0.525436;0.527763;0.529412;0.533792;0.529455;0.533003;0.538423;0.536990;0.539388;0.539021;0.538430;0.539975;0.546340;0.547207;0.545913;0.549238;0.549208;0.554521;0.554660;0.558254;0.560878;0.563088;0.561016;0.564298;0.561985;0.561809;0.564445;0.568244;0.572517;0.567893;0.574886;0.573445;0.570578;0.573507;0.575920;0.577455;0.581322;0.581046;0.581630;0.580832;0.581411;0.581937;0.588869;0.582918;0.587640;0.597456;0.591534;0.587931;0.590248;0.590632;0.594249;0.595026;0.592502;0.601094;0.600353;0.600214;0.600177;0.605847;0.603795;0.609558;0.608739;0.615518;0.613297;0.615246;0.621781;0.623642;0.625824;0.628315;0.629886;0.632199;0.635576;0.637808;0.637520;0.644732;0.647176;0.652705;0.654252;0.658277;0.661514;0.661338;0.670342;0.679168;0.680889;0.685498;0.684190;0.690774;0.692574;0.699173;0.700233;0.709632;0.716402;0.717436;0.726726;0.725764;0.732193;0.734669;0.742645;0.740714;0.750240;0.750974;0.749807;0.758050;0.760760;0.763212;0.766051;0.767052;0.775257;0.772561;0.775548;0.783684;0.783657;0.789035;0.783443;0.787966;0.793702;0.790667;0.788984;0.797561;0.786828;0.790542;0.793298;0.798755;0.792581;0.789948;0.795520;0.790394;0.792718;0.786866;0.790495;0.793734;0.787816;0.786897;0.781416;0.786351;0.780636;0.781453;0.771991;0.773236;0.766186;0.769610;0.768320;0.765487;0.763307;0.759314;0.756852;0.756907;0.745407;0.741743;0.744797;0.739002;0.732019;0.730374;0.724225;0.720726;0.720107;0.714954;0.709509;0.703510;0.701296;0.698253;0.692099;0.688593;0.680114;0.676464;0.669094;0.665882;0.657473;0.655327;0.649917;0.641630;0.646549;0.634664;0.627638;0.627524;0.616081;0.613259;0.608367;0.605718;0.597785;0.593969;0.588227;0.585052;0.579017;0.579437;0.574864;0.563795;0.564909;0.560066;0.556925;0.554973;0.550094
0.589115;0.599447;0.599660;0.610880;0.610582;0.619955;0.632206;0.639150;0.642327;0.650301;0.660116;0.666305;0.678007;0.682912;0.686511;0.699688;0.706850;0.711593;0.725398;0.731769;0.737325;0.741659;0.754936;0.765131;0.770591;0.778259;0.783120;0.784979;0.791515;0.803601;0.807628;0.811298;0.813704;0.818286;0.823342;0.833842;0.831201;0.838157;0.837525;0.836206;0.842904;0.842847;0.839755;0.840635;0.840007;0.837011;0.841642;0.836693;0.833380;0.834054;0.828067;0.825105;0.820268;0.820287;0.811406;0.805174;0.803604;0.796247;0.796508;0.788481;0.782325;0.777492;0.770456;0.765142;0.759057;0.756117;0.744755;0.738577;0.729323;0.729280;0.718858;0.713572;0.712902;0.703315;0.701230;0.696901;0.689209;0.681762;0.680972;0.675687;0.670631;0.667769;0.657835;0.656790;0.654742;0.653329;0.638507;0.646069;0.642747;0.634791;0.641163;0.629580;0.631423;0.631846;0.629014;0.624975;0.625550;0.623746;0.622085;0.620200;0.620499;0.615384;0.619495;0.615853;0.616543;0.613203;0.619623;0.612018;0.611688;0.611202;0.610164;0.611184;0.612121;0.611523;0.608967;0.607322;0.608102;0.610477;0.602217;0.603654;0.609860;0.611004;0.608846;0.606849;0.603822;0.604798;0.604466;0.597136;0.599268;0.603133;0.597839;0.600039;0.594585;0.597546;0.595532;0.597885;0.594088;0.590789;0.593156;0.592902;0.593243;0.587356;0.591454;0.589762;0.588928;0.582976;0.586700;0.580994;0.578035;0.578575;0.581121;0.583373;0.576469;0.575254;0.576805;0.573684;0.571417;0.569114;0.567177;0.567800;0.567596;0.569360;0.565666;0.564457;0.563379;0.558193;0.554935;0.554318;0.551438;0.554981;0.549076;0.551169;0.547487;0.552128;0.545160;0.542769;0.539518;0.545962;0.544349;0.538453;0.540183;0.538065;0.536925;0.538351;0.533281;0.530320;0.529538;0.526197;0.525364;0.528121;0.531352;0.527632;0.524644;0.519306;0.521075;0.520966;0.514295;0.518865;0.516039;0.520390
0.506769;0.507529;0.508266;0.512831;0.511761;0.510580;0.511136;0.514235;0.512013;0.515002;0.514720;0.514665;0.518242;0.519989;0.522069;0.519056;0.522518;0.522210;0.523615;0.522989;0.525849;0.526167;0.531584;0.523762;0.530393;0.531436;0.530481;0.533856;0.532752;0.531133;0.535747;0.536888;0.539785;0.536653;0.542329;0.546034;0.546322;0.545939;0.546330;0.544569;0.553309;0.548413;0.556076;0.553104;0.559931;0.559384;0.563829;0.557789;0.567564;0.563275;0.570488;0.571667;0.572456;0.574912;0.576588;0.575447;0.578999;0.586365;0.584950;0.587550;0.586294;0.591972;0.591486;0.598662;0.592677;0.604417;0.598757;0.603630;0.610734;0.611548;0.611979;0.616840;0.621301;0.626165;0.630088;0.630348;0.632131;0.638792;0.640303;0.646114;0.650113;0.651835;0.659390;0.662476;0.660513;0.669742;0.671793;0.676921;0.682096;0.691723;0.689949;0.693348;0.699362;0.701843;0.713083;0.714367;0.716030;0.724417;0.725779;0.730190;0.733593;0.739137;0.744955;0.745480;0.756628;0.756728;0.765182;0.765294;0.766299;0.773671;0.775185;0.780928;0.780463;0.784931;0.791108;0.794385;0.795428;0.795569;0.798640;0.801228;0.800336;0.806516;0.801397;0.803925;0.807324;0.799526;0.805031;0.808270;0.804878;0.805842;0.808123;0.807818;0.806069;0.809883;0.803718;0.802196;0.800488;0.797449;0.799841;0.798835;0.794119;0.794108;0.793066;0.789790;0.784844;0.782730;0.778474;0.774487;0.773598;0.765732;0.765949;0.764596;0.753853;0.760664;0.754298;0.749150;0.745666;0.744212;0.737362;0.740549;0.733349;0.723586;0.722585;0.717319;0.711685;0.704259;0.699824;0.692598;0.692653;0.685769;0.684180;0.676938;0.675349;0.667566;0.662065;0.655552;0.651867;0.651157;0.643176;0.638813;0.637810;0.624610;0.620928;0.619290;0.611476;0.607297;0.603607;0.601067;0.593435;0.584940;0.585143;0.579678;0.576208;0.570983;0.572911;0.563126;0.558549;0.554433;0.554191;0.551702
0.513053;0.517530;0.523698;0.523698;0.520309;0.525468;0.526906;0.523773;0.524084;0.532027;0.532163;0.532022;0.531575;0.539294;0.533765;0.535343;0.537487;0.546609;0.544534;0.547297;0.545876;0.549804;0.552813;0.554030;0.561354;0.558014;0.557941;0.565311;0.566277;0.561608;0.570474;0.573005;0.572083;0.576505;0.577057;0.581049;0.579368;0.581875;0.585038;0.585705;0.587162;0.591812;0.593968;0.600336;0.594964;0.599042;0.597593;0.603167;0.608230;0.607638;0.617499;0.613770;0.618397;0.617804;0.614125;0.617255;0.622603;0.626121;0.622657;0.625599;0.629052;0.630844;0.631884;0.629692;0.634175;0.641818;0.641212;0.639144;0.644209;0.640569;0.644008;0.644258;0.648472;0.648724;0.653953;0.651296;0.652873;0.652640;0.658096;0.655044;0.660416;0.659076;0.660873;0.661671;0.663569;0.659339;0.662998;0.658962;0.665777;0.666222;0.665671;0.666097;0.667972;0.664853;0.670279;0.666571;0.669609;0.671310;0.672886;0.673160;0.671192;0.675726;0.671707;0.673052;0.674371;0.677173;0.674859;0.682331;0.685130;0.684844;0.680696;0.684207;0.682152;0.689920;0.693561;0.693929;0.694100;0.697304;0.693463;0.700281;0.700425;0.701633;0.707957;0.709253;0.711287;0.715921;0.715050;0.716631;0.717906;0.721890;0.724956;0.726307;0.725655;0.735379;0.736140;0.733655;0.741947;0.740543;0.745442;0.743917;0.752020;0.747690;0.758790;0.757457;0.759096;0.758049;0.759834;0.762357;0.761870;0.763631;0.762929;0.761406;0.763850;0.762684;0.764457;0.763019;0.763479;0.765446;0.758588;0.756768;0.752924;0.753099;0.748089;0.750659;0.749622;0.740937;0.738760;0.729948;0.729148;0.731161;0.720269;0.714610;0.707944;0.702122;0.698349;0.697276;0.693580;0.682370;0.677035;0.672656;0.667544;0.663328;0.654734;0.650223;0.641079;0.632927;0.635017;0.621419;0.617834;0.615707;0.611985;0.603508;0.594560;0.599349;0.584273;0.585049;0.581658;0.576327;0.569418;0.565795
0.519628;0.519814;0.527633;0.530811;0.524017;0.527697;0.530623;0.534113;0.534595;0.542518;0.543194;0.546907;0.544913;0.549998;0.546120;0.552232;0.548891;0.553582;0.557801;0.558676;0.562288;0.564970;0.564848;0.569077;0.571646;0.567845;0.570347;0.575312;0.573312;0.580806;0.580204;0.580626;0.577696;0.584772;0.581302;0.582934;0.583549;0.579532;0.580406;0.587149;0.584440;0.579375;0.587560;0.589420;0.585236;0.585300;0.585266;0.581051;0.583249;0.580254;0.586985;0.580315;0.583355;0.582469;0.575181;0.581000;0.579821;0.576775;0.578776;0.570827;0.568291;0.571079;0.565155;0.568937;0.571764;0.568112;0.567380;0.569126;0.563132;0.565079;0.559542;0.564242;0.562380;0.558349;0.560515;0.558166;0.560170;0.562940;0.568106;0.565728;0.566837;0.563858;0.569670;0.570368;0.569111;0.568648;0.576173;0.577469;0.576414;0.580479;0.585799;0.580875;0.585144;0.590365;0.595100;0.598302;0.598050;0.604961;0.603692;0.612668;0.610209;0.619691;0.617486;0.629650;0.630965;0.637833;0.637030;0.643830;0.647906;0.649202;0.654303;0.661947;0.667625;0.669747;0.678683;0.680541;0.687140;0.690413;0.695499;0.700047;0.705447;0.705148;0.713473;0.718664;0.724438;0.730937;0.733775;0.736378;0.742215;0.753682;0.761374;0.763306;0.769417;0.769499;0.778528;0.782440;0.786003;0.791893;0.798442;0.800144;0.798153;0.805873;0.808769;0.813539;0.818325;0.822033;0.823666;0.826265;0.825681;0.829449;0.834734;0.833810;0.829912;0.828738;0.837555;0.836057;0.830036;0.834511;0.833045;0.831723;0.824565;0.823562;0.821288;0.821290;0.816380;0.811929;0.811223;0.802468;0.798157;0.796124;0.785525;0.780184;0.772439;0.767138;0.761329;0.756562;0.745012;0.738370;0.732603;0.722353;0.714498;0.709229;0.701923;0.691984;0.686508;0.681644;0.665434;0.665609;0.653371;0.651356;0.640587;0.633723;0.627442;0.619260;0.612565;0.612277;0.602040;0.593240;0.591690;0.585821
0.566126;0.566220;0.569136;0.585791;0.578433;0.587246;0.593732;0.596014;0.603218;0.609508;0.613827;0.622283;0.623935;0.633853;0.638579;0.646759;0.652746;0.651759;0.665306;0.667576;0.675690;0.680130;0.689599;0.692576;0.701864;0.705495;0.709636;0.714915;0.721523;0.724143;0.732425;0.733781;0.742692;0.748893;0.745286;0.752280;0.756233;0.763269;0.764887;0.761957;0.769820;0.772619;0.769701;0.775554;0.773000;0.775644;0.773503;0.772588;0.777227;0.779919;0.775526;0.776718;0.776453;0.772739;0.774103;0.771525;0.771619;0.770217;0.773841;0.768556;0.767726;0.764749;0.760125;0.761583;0.763162;0.755890;0.753429;0.751995;0.749212;0.748540;0.743201;0.741617;0.736371;0.734541;0.734284;0.735094;0.727000;0.727673;0.720461;0.719269;0.719731;0.712176;0.711864;0.708999;0.706196;0.705408;0.701584;0.699485;0.698407;0.690268;0.694409;0.693662;0.690721;0.684747;0.679855;0.675858;0.672913;0.673766;0.671011;0.669593;0.665353;0.664821;0.659982;0.664477;0.663574;0.657902;0.653314;0.651241;0.657054;0.650269;0.650686;0.650024;0.643842;0.640624;0.637912;0.642192;0.638758;0.637174;0.633077;0.630833;0.629765;0.630849;0.635181;0.632917;0.627589;0.622826;0.620870;0.625298;0.615861;0.616940;0.621679;0.619826;0.615545;0.621114;0.614849;0.616606;0.612059;0.612940;0.610814;0.609735;0.610922;0.604842;0.604584;0.608829;0.601684;0.602291;0.602232;0.598967;0.598346;0.599055;0.594395;0.592731;0.601021;0.590965;0.590682;0.592756;0.588631;0.588034;0.590863;0.581791;0.583166;0.575204;0.583096;0.583014;0.581755;0.577294;0.575715;0.571764;0.568019;0.569685;0.563733;0.564799;0.565726;0.563330;0.559227;0.557359;0.558012;0.550961;0.555019;0.550095;0.547557;0.547646;0.547316;0.541181;0.539805;0.539318;0.536573;0.535931;0.537023;0.531555;0.529057;0.530404;0.529910;0.530999;0.528719;0.525125;0.521257;0.522980;0.516637;0.521282
0.505752;0.506196;0.501984;0.504385;0.503542;0.508832;0.502265;0.508418;0.512615;0.506411;0.510127;0.504985;0.511831;0.508505;0.514489;0.509008;0.514473;0.513650;0.515587;0.510530;0.511660;0.518562;0.523646;0.519110;0.523158;0.521484;0.526343;0.531879;0.535067;0.533406;0.539696;0.535198;0.547807;0.544896;0.547825;0.553058;0.559388;0.560390;0.563236;0.567675;0.570108;0.577615;0.582219;0.585260;0.585901;0.594967;0.599885;0.602467;0.610546;0.614949;0.622931;0.623693;0.633708;0.636994;0.641310;0.649287;0.658593;0.660849;0.667779;0.670521;0.675637;0.683461;0.690970;0.697075;0.701571;0.708765;0.710137;0.715578;0.721360;0.727160;0.729675;0.736654;0.736870;0.737940;0.743484;0.747011;0.750168;0.753168;0.751996;0.754462;0.757875;0.754257;0.761411;0.758291;0.762364;0.758961;0.758573;0.760395;0.761848;0.756979;0.755493;0.753887;0.755081;0.751234;0.750728;0.752510;0.747621;0.743296;0.742779;0.738355;0.735896;0.734230;0.734785;0.724785;0.725163;0.721785;0.716462;0.722588;0.717145;0.715691;0.713144;0.708442;0.710735;0.704869;0.699699;0.700103;0.701121;0.700218;0.697934;0.698813;0.691799;0.695595;0.695497;0.691513;0.693424;0.698096;0.694975;0.696959;0.694840;0.693192;0.696904;0.694436;0.697299;0.699555;0.700708;0.698130;0.701559;0.702280;0.702689;0.705549;0.705744;0.702783;0.704759;0.710456;0.709669;0.711238;0.708368;0.708439;0.713973;0.711553;0.703540;0.713531;0.709914;0.717130;0.711202;0.710836;0.709656;0.709588;0.710306;0.703197;0.709035;0.702747;0.704344;0.698512;0.696191;0.691325;0.689621;0.685334;0.684687;0.679810;0.679059;0.672520;0.667244;0.662587;0.661736;0.656351;0.652728;0.648217;0.642933;0.639127;0.627122;0.629200;0.623496;0.618548;0.610317;0.604820;0.610144;0.597499;0.595517;0.590536;0.581366;0.581495;0.574024;0.572668;0.569789;0.564688;0.561980;0.558022;0.555149;0.553023
0.573645;0.576023;0.582071;0.591337;0.596028;0.598241;0.601912;0.614838;0.615014;0.625372;0.627698;0.640656;0.642424;0.647069;0.651495;0.667079;0.671856;0.673016;0.683991;0.690943;0.697303;0.700799;0.711099;0.723217;0.721536;0.725825;0.732541;0.736734;0.744523;0.748899;0.750547;0.757037;0.761269;0.762984;0.764948;0.774479;0.771038;0.775274;0.777311;0.781923;0.781664;0.776541;0.777847;0.780329;0.780315;0.778461;0.783566;0.779364;0.782219;0.771863;0.775406;0.767969;0.766539;0.762168;0.760794;0.754285;0.756703;0.747159;0.747412;0.744867;0.740466;0.733144;0.735158;0.730111;0.727562;0.716701;0.716301;0.709654;0.707422;0.702865;0.700931;0.696998;0.691375;0.689315;0.682712;0.682661;0.676992;0.677201;0.673903;0.675597;0.671069;0.667979;0.668053;0.666653;0.668253;0.664077;0.662599;0.660518;0.664685;0.664827;0.662593;0.658514;0.661282;0.664816;0.666842;0.666583;0.663926;0.662468;0.664393;0.667628;0.669667;0.674186;0.672022;0.671824;0.672243;0.674985;0.681983;0.677589;0.678079;0.682181;0.680936;0.680613;0.676543;0.680637;0.675638;0.678162;0.680606;0.681154;0.672672;0.678582;0.677523;0.674619;0.676600;0.679852;0.675566;0.670100;0.672895;0.668878;0.667458;0.665060;0.661085;0.661535;0.656011;0.653841;0.652527;0.647992;0.646990;0.640573;0.638725;0.634342;0.634221;0.627622;0.626831;0.620807;0.616097;0.612424;0.607951;0.606262;0.602538;0.600434;0.596064;0.595856;0.591482;0.593335;0.586826;0.586670;0.578968;0.577980;0.571617;0.567903;0.567446;0.562839;0.563058;0.563996;0.559631;0.557469;0.550497;0.548464;0.548686;0.546615;0.545377;0.537773;0.543663;0.532478;0.536960;0.529064;0.537678;0.528480;0.528083;0.526358;0.526073;0.523978;0.519847;0.521448;0.522960;0.518694;0.517887;0.518931;0.517489;0.516633;0.516701;0.517001;0.516735;0.512148;0.509922;0.510163;0.512378;0.509982;0.509654;0.511339
0.527499;0.528140;0.529259;0.531710;0.535211;0.541167;0.543069;0.539239;0.548805;0.547078;0.549606;0.556199;0.551047;0.557940;0.563123;0.568160;0.564374;0.571186;0.569053;0.579072;0.578721;0.586297;0.593035;0.592187;0.599790;0.602211;0.601252;0.609430;0.610262;0.621825;0.620530;0.622548;0.627806;0.629248;0.635960;0.638747;0.646680;0.647899;0.653678;0.656361;0.662509;0.668061;0.670417;0.679189;0.679864;0.680574;0.685703;0.689226;0.697594;0.700326;0.695851;0.710675;0.717690;0.716926;0.726097;0.727826;0.729302;0.737527;0.739731;0.740135;0.743307;0.753927;0.754548;0.757030;0.757804;0.766750;0.765486;0.769952;0.775352;0.773146;0.777585;0.775202;0.778728;0.781774;0.781592;0.780064;0.780892;0.781161;0.782407;0.780515;0.783543;0.780742;0.778311;0.778000;0.778157;0.775041;0.771367;0.769003;0.763119;0.763252;0.759433;0.755055;0.758872;0.750377;0.746682;0.742523;0.737462;0.731903;0.731472;0.725343;0.720869;0.716251;0.714247;0.707527;0.707100;0.697487;0.693075;0.691088;0.681638;0.677720;0.677327;0.672242;0.672323;0.667752;0.662967;0.657302;0.659172;0.653403;0.653323;0.647193;0.646450;0.645400;0.643445;0.638986;0.641925;0.638649;0.634149;0.637787;0.631818;0.629880;0.630329;0.633304;0.632944;0.628926;0.623769;0.626235;0.628769;0.629501;0.624073;0.622566;0.627898;0.628124;0.628126;0.624615;0.631432;0.629433;0.627554;0.630496;0.628664;0.630079;0.627368;0.625556;0.627313;0.627681;0.626941;0.621997;0.626401;0.623723;0.622558;0.622016;0.620664;0.619355;0.613952;0.616679;0.614113;0.613178;0.607340;0.610858;0.608492;0.597852;0.604670;0.595221;0.595559;0.592601;0.591445;0.589538;0.585607;0.581779;0.584402;0.575318;0.569049;0.569891;0.561975;0.564796;0.560077;0.563562;0.560109;0.553187;0.551481;0.547394;0.546280;0.542534;0.539861;0.537019;0.535581;0.535421;0.530079;0.524821;0.528473;0.522510
0.504463;0.506714;0.508375;0.508674;0.507666;0.508022;0.509662;0.511738;0.509957;0.509649;0.515509;0.511247;0.516838;0.515297;0.516726;0.517235;0.516984;0.518360;0.523172;0.517317;0.525460;0.524419;0.521636;0.527669;0.528152;0.528219;0.534461;0.529463;0.536711;0.541498;0.544210;0.540022;0.540922;0.542517;0.546266;0.551141;0.552932;0.557492;0.555063;0.557845;0.556729;0.569444;0.563547;0.569885;0.567050;0.570330;0.582576;0.582895;0.589715;0.588118;0.592183;0.599828;0.601314;0.603462;0.608891;0.608878;0.608190;0.620482;0.620942;0.622921;0.625982;0.633513;0.639851;0.642494;0.648479;0.645553;0.650962;0.658288;0.664284;0.667974;0.670716;0.676118;0.678176;0.676867;0.684997;0.685524;0.692765;0.695408;0.702831;0.704915;0.711890;0.718672;0.722544;0.721883;0.725326;0.730127;0.731499;0.737729;0.736627;0.742237;0.746101;0.748352;0.751053;0.758558;0.758585;0.768539;0.767282;0.766488;0.772016;0.775185;0.775690;0.777167;0.783693;0.785295;0.782991;0.786017;0.786085;0.793922;0.794859;0.795779;0.796381;0.795057;0.794880;0.801176;0.797679;0.803031;0.801584;0.799800;0.800870;0.798733;0.796547;0.796958;0.800153;0.796477;0.794868;0.794286;0.793888;0.784854;0.785153;0.779896;0.779664;0.782636;0.771514;0.768883;0.769229;0.768004;0.763506;0.762692;0.757444;0.756777;0.749117;0.748718;0.736125;0.739983;0.730513;0.734089;0.726961;0.718497;0.715965;0.716073;0.708255;0.706785;0.697953;0.693814;0.694412;0.685115;0.684383;0.677785;0.672283;0.668854;0.666713;0.665233;0.659366;0.654552;0.649052;0.641353;0.646013;0.639028;0.633978;0.627429;0.622888;0.616458;0.614981;0.613452;0.610771;0.607337;0.602103;0.598176;0.587558;0.588181;0.587284;0.579241;0.574260;0.573119;0.566765;0.565692;0.565486;0.562818;0.558115;0.556833;0.548781;0.551619;0.546252;0.537822;0.538149;0.539158;0.536874;0.532745;0.534262;0.521690
0.516556;0.517575;0.522995;0.519026;0.520655;0.526416;0.529576;0.528629;0.525263;0.529254;0.528905;0.533116;0.533332;0.538898;0.536455;0.539418;0.543730;0.543824;0.542851;0.545869;0.545205;0.551903;0.552799;0.547562;0.551759;0.554889;0.556233;0.558240;0.564594;0.559649;0.560188;0.568495;0.568750;0.569546;0.568066;0.577132;0.570933;0.576675;0.576618;0.579245;0.578224;0.579890;0.578929;0.580348;0.584975;0.579926;0.583169;0.582994;0.589566;0.586118;0.589706;0.586862;0.591024;0.590068;0.589965;0.586339;0.593457;0.595688;0.594734;0.596907;0.593914;0.598944;0.602459;0.596551;0.598279;0.604266;0.600569;0.607669;0.604173;0.608842;0.610351;0.614656;0.618433;0.615158;0.621008;0.622551;0.624834;0.626429;0.627370;0.637113;0.629860;0.640102;0.647183;0.641197;0.650161;0.652064;0.658353;0.661505;0.665450;0.667473;0.675794;0.678322;0.683611;0.688081;0.689385;0.694988;0.701895;0.706095;0.711899;0.716254;0.722882;0.720982;0.726047;0.738425;0.738565;0.747265;0.745055;0.751475;0.754071;0.755665;0.761801;0.766859;0.768390;0.775443;0.779287;0.778766;0.784434;0.784702;0.787301;0.790012;0.791807;0.796913;0.792906;0.793321;0.798538;0.800977;0.800051;0.796135;0.801454;0.802166;0.802118;0.802095;0.795237;0.798940;0.800566;0.798740;0.795987;0.792396;0.793842;0.792023;0.790363;0.785645;0.786587;0.786677;0.777632;0.781287;0.776774;0.771129;0.773814;0.767997;0.766396;0.762918;0.756875;0.747455;0.754226;0.750245;0.747044;0.742611;0.736016;0.735988;0.728994;0.724870;0.720782;0.719656;0.710789;0.711564;0.704407;0.693674;0.693766;0.691386;0.687489;0.676962;0.674686;0.670087;0.663584;0.654044;0.655300;0.654413;0.643104;0.637759;0.636860;0.634002;0.626606;0.618733;0.614366;0.612985;0.602702;0.599621;0.597183;0.591850;0.591553;0.585633;0.586532;0.574303;0.577363;0.566451;0.562168;0.562940;0.555900;0.559796
0.509348;0.508135;0.508365;0.515411;0.506508;0.507436;0.514141;0.513933;0.515756;0.519391;0.522855;0.518069;0.519493;0.518594;0.516857;0.524243;0.522376;0.527791;0.527495;0.526520;0.528008;0.530401;0.525618;0.533353;0.528706;0.535879;0.534927;0.540453;0.538762;0.540804;0.541378;0.540729;0.541923;0.546550;0.549771;0.550370;0.551457;0.557952;0.557699;0.561159;0.562547;0.566977;0.564840;0.567174;0.573818;0.573742;0.579075;0.578022;0.573334;0.582152;0.584753;0.586124;0.592552;0.590995;0.598331;0.598644;0.601385;0.605004;0.605359;0.609596;0.611465;0.616914;0.612883;0.620211;0.623207;0.624386;0.626091;0.630689;0.635032;0.635629;0.639514;0.638320;0.641178;0.647239;0.646162;0.644780;0.651230;0.651362;0.651437;0.653608;0.655609;0.659839;0.658069;0.664091;0.661005;0.669245;0.668283;0.668466;0.668884;0.673880;0.675567;0.675378;0.680056;0.676816;0.685077;0.679524;0.680752;0.681893;0.681374;0.684288;0.686094;0.687253;0.686497;0.691833;0.693982;0.693638;0.697642;0.699736;0.696580;0.699217;0.703950;0.701388;0.705079;0.709000;0.705944;0.710707;0.714130;0.714393;0.716291;0.717947;0.715087;0.721858;0.728264;0.730710;0.730375;0.734189;0.729365;0.738003;0.735195;0.739567;0.739887;0.745686;0.746875;0.753226;0.755124;0.751385;0.756775;0.753669;0.762552;0.762942;0.766735;0.764620;0.769982;0.768833;0.771857;0.776945;0.770436;0.775596;0.772819;0.775423;0.777477;0.771186;0.777816;0.775870;0.776857;0.770434;0.771475;0.768115;0.765891;0.766112;0.763097;0.763495;0.755500;0.755159;0.749104;0.751736;0.741484;0.740787;0.732782;0.735681;0.725555;0.721489;0.713606;0.706601;0.707641;0.700816;0.694391;0.684208;0.680722;0.678724;0.669524;0.655551;0.657650;0.649423;0.643781;0.636866;0.630748;0.626169;0.615263;0.610278;0.606585;0.598879;0.597909;0.585118;0.580057;0.579526;0.576938;0.570425;0.564794;0.565350
0.577615;0.586309;0.592161;0.594776;0.599123;0.606647;0.616054;0.619532;0.624441;0.637659;0.635259;0.647595;0.651841;0.657809;0.666194;0.677547;0.681169;0.687288;0.695413;0.704386;0.710846;0.710899;0.723097;0.728661;0.732253;0.739637;0.746706;0.754075;0.752596;0.760395;0.760761;0.771552;0.771041;0.779500;0.776611;0.786006;0.781669;0.782883;0.784968;0.787944;0.783910;0.783823;0.784779;0.790037;0.783244;0.781036;0.781808;0.775206;0.770735;0.772173;0.763056;0.760340;0.754027;0.747347;0.747065;0.738539;0.733504;0.730553;0.725311;0.715292;0.711323;0.705469;0.693881;0.689640;0.681186;0.679372;0.672893;0.660725;0.658725;0.647497;0.646631;0.636633;0.636499;0.627854;0.621650;0.618498;0.612333;0.606998;0.607075;0.600858;0.594983;0.593651;0.589924;0.593727;0.584237;0.582849;0.578621;0.576946;0.570683;0.572405;0.568763;0.566666;0.565686;0.564454;0.569662;0.566463;0.569448;0.565401;0.563192;0.567394;0.574373;0.567791;0.572052;0.573535;0.570031;0.576621;0.574996;0.578029;0.581276;0.583022;0.581879;0.583730;0.580762;0.582570;0.591510;0.591673;0.594159;0.602784;0.598826;0.599707;0.601589;0.608883;0.616705;0.611275;0.616063;0.619303;0.620850;0.619022;0.623724;0.626851;0.628489;0.631528;0.634349;0.638000;0.643267;0.642463;0.640035;0.646988;0.646499;0.651890;0.650008;0.653955;0.653428;0.659534;0.656530;0.660820;0.660803;0.667279;0.662344;0.664883;0.663809;0.666945;0.669896;0.666372;0.663176;0.670349;0.666153;0.664692;0.665181;0.664977;0.669439;0.660665;0.660523;0.658728;0.659113;0.655076;0.655948;0.654513;0.648412;0.644434;0.643035;0.639064;0.637660;0.630694;0.629476;0.625582;0.624162;0.620553;0.616386;0.608790;0.607671;0.601956;0.602386;0.590959;0.589315;0.585003;0.582459;0.579523;0.572238;0.571125;0.571469;0.563471;0.563889;0.558011;0.553134;0.547815;0.544326;0.543535;0.542489;0.538462
0.519119;0.518137;0.518687;0.526148;0.526555;0.524520;0.523872;0.533011;0.532089;0.536362;0.530414;0.538430;0.542103;0.543829;0.543496;0.543534;0.545658;0.550579;0.549579;0.550759;0.553842;0.558376;0.562962;0.561445;0.561718;0.563969;0.561930;0.564401;0.566716;0.569873;0.571314;0.574639;0.578397;0.578825;0.576452;0.575422;0.576184;0.579281;0.582363;0.581870;0.581812;0.584381;0.582768;0.586981;0.588060;0.583725;0.592392;0.583749;0.589801;0.586804;0.591804;0.593846;0.594446;0.592712;0.594380;0.597396;0.596381;0.593097;0.598535;0.596325;0.596779;0.603621;0.604727;0.604482;0.605646;0.606723;0.609619;0.613436;0.614180;0.616142;0.615700;0.623260;0.625622;0.634175;0.633988;0.638040;0.640656;0.646631;0.649132;0.654747;0.663345;0.667489;0.673298;0.680496;0.683241;0.689827;0.702796;0.701763;0.713645;0.723134;0.730178;0.732734;0.740478;0.749817;0.760753;0.768096;0.777314;0.781339;0.789732;0.800758;0.803544;0.816009;0.822326;0.827881;0.835202;0.842268;0.846648;0.851844;0.859125;0.864399;0.869078;0.871600;0.877060;0.884416;0.884313;0.886387;0.891041;0.890881;0.888584;0.888547;0.890899;0.889122;0.888368;0.886783;0.881802;0.879508;0.876103;0.874999;0.864534;0.863252;0.860023;0.851551;0.847305;0.839189;0.827740;0.821291;0.814261;0.809895;0.803936;0.787853;0.787642;0.777950;0.769903;0.761316;0.749384;0.739228;0.734596;0.725623;0.717223;0.704857;0.692831;0.691192;0.679214;0.674132;0.664717;0.657318;0.652361;0.642737;0.640188;0.632851;0.629693;0.612671;0.612845;0.601505;0.597816;0.590582;0.587464;0.583926;0.578470;0.570157;0.570427;0.561776;0.563501;0.562537;0.558532;0.551558;0.549919;0.546603;0.543108;0.540633;0.534993;0.533492;0.534288;0.533907;0.531565;0.525779;0.528552;0.519904;0.524636;0.522940;0.516148;0.513793;0.513273;0.516318;0.512289;0.514962;0.510319;0.511120;0.513337;0.509750
0.531171;0.529757;0.538914;0.538672;0.540298;0.536900;0.545695;0.546895;0.549955;0.549557;0.555922;0.555112;0.560584;0.565260;0.560769;0.564716;0.573679;0.573034;0.575988;0.581558;0.585545;0.584555;0.589379;0.591141;0.593887;0.597193;0.606759;0.599420;0.603964;0.605655;0.613108;0.614442;0.620584;0.621116;0.620280;0.623959;0.626190;0.631479;0.628398;0.633233;0.635963;0.635521;0.638519;0.638811;0.637146;0.639409;0.640581;0.642660;0.645231;0.646121;0.649518;0.647646;0.650433;0.649776;0.652900;0.657301;0.656224;0.649249;0.652142;0.655150;0.649489;0.654156;0.656451;0.653220;0.655268;0.653830;0.654159;0.656385;0.650680;0.653702;0.655441;0.652885;0.653486;0.654148;0.650921;0.653717;0.656042;0.647522;0.650826;0.651320;0.653177;0.650212;0.649299;0.654377;0.652513;0.650101;0.650107;0.655583;0.651146;0.646328;0.649534;0.650501;0.650403;0.651788;0.645464;0.649485;0.647802;0.648255;0.648106;0.654397;0.651619;0.654090;0.649684;0.653851;0.644945;0.653461;0.650284;0.655810;0.651461;0.655183;0.659093;0.657092;0.655191;0.662123;0.655757;0.660366;0.664366;0.663050;0.663637;0.669334;0.671772;0.671159;0.673740;0.676529;0.673801;0.680987;0.683186;0.685303;0.689542;0.690242;0.690081;0.687509;0.696567;0.698389;0.701426;0.701266;0.701055;0.707332;0.711272;0.705153;0.712089;0.718132;0.713403;0.715625;0.726144;0.723804;0.723362;0.724312;0.724568;0.724173;0.725826;0.725952;0.726158;0.729928;0.723397;0.727014;0.727566;0.727591;0.726542;0.723434;0.722037;0.719668;0.721549;0.712238;0.718597;0.704765;0.705476;0.700079;0.695698;0.694968;0.692707;0.683629;0.679951;0.675357;0.673737;0.667229;0.659554;0.659312;0.650330;0.647047;0.640096;0.637036;0.633136;0.621127;0.620990;0.617662;0.614043;0.600370;0.597168;0.592267;0.584050;0.582793;0.579946;0.573398;0.567003;0.567030;0.558616;0.561143;0.555121;0.550357
0.601498;0.607750;0.616938;0.623404;0.630617;0.634703;0.649491;0.656325;0.661219;0.672697;0.682355;0.687545;0.699744;0.709893;0.712548;0.729514;0.734441;0.746222;0.747635;0.762840;0.771772;0.780552;0.789992;0.793424;0.801124;0.814691;0.825097;0.831604;0.835639;0.846311;0.848959;0.857703;0.858549;0.868003;0.874498;0.878370;0.881366;0.884053;0.884935;0.887709;0.886218;0.896404;0.890589;0.886637;0.887925;0.889418;0.886430;0.889508;0.882809;0.876231;0.876397;0.867330;0.869298;0.860821;0.863727;0.854628;0.848204;0.833112;0.835989;0.830895;0.817708;0.813170;0.803067;0.800692;0.789167;0.784136;0.775637;0.766211;0.759958;0.752955;0.749349;0.736464;0.734066;0.729445;0.719837;0.710366;0.705277;0.696557;0.695666;0.688583;0.681986;0.674576;0.671492;0.657937;0.660171;0.657362;0.645636;0.645093;0.642598;0.636536;0.633237;0.626857;0.619242;0.622536;0.615237;0.612816;0.608041;0.607003;0.604469;0.597772;0.599858;0.594685;0.595156;0.585169;0.589713;0.589353;0.579085;0.577993;0.577131;0.573825;0.573747;0.573917;0.571246;0.571633;0.568881;0.565224;0.566958;0.561216;0.561196;0.563988;0.560982;0.558809;0.558841;0.558850;0.557161;0.558625;0.559819;0.555550;0.553167;0.552318;0.554569;0.550351;0.551875;0.553775;0.550251;0.550210;0.546986;0.553211;0.541640;0.546545;0.548889;0.549711;0.546196;0.544529;0.543484;0.543046;0.541509;0.541457;0.540983;0.541397;0.540191;0.538159;0.540506;0.541074;0.541420;0.540810;0.539766;0.537608;0.537733;0.537121;0.534219;0.529465;0.529188;0.534658;0.530925;0.530040;0.533084;0.534197;0.530811;0.530398;0.525447;0.523209;0.523231;0.522308;0.523446;0.523375;0.524696;0.524023;0.523708;0.520414;0.520157;0.522953;0.522756;0.515321;0.515759;0.515927;0.516994;0.515595;0.510417;0.511424;0.508539;0.508642;0.513656;0.509169;0.510900;0.509152;0.508225;0.502888;0.506817;0.508871
0.591503;0.594119;0.602344;0.608017;0.619965;0.624116;0.634024;0.636818;0.645032;0.648645;0.656120;0.668567;0.674582;0.679308;0.693414;0.701444;0.711550;0.716206;0.725606;0.732229;0.742708;0.750621;0.756016;0.762903;0.768927;0.775618;0.782032;0.786006;0.797718;0.805764;0.813844;0.813481;0.820025;0.828235;0.826535;0.831518;0.837249;0.839004;0.844414;0.840616;0.846094;0.846721;0.845374;0.847699;0.844468;0.840852;0.842733;0.840722;0.837403;0.836423;0.831585;0.826513;0.825560;0.823704;0.819591;0.818397;0.813549;0.802415;0.793847;0.795481;0.783557;0.779558;0.776616;0.769928;0.766318;0.757576;0.752940;0.744371;0.740519;0.737044;0.728777;0.721943;0.717792;0.712097;0.705814;0.704048;0.693616;0.688072;0.685698;0.680744;0.675367;0.678581;0.668138;0.666998;0.662932;0.660391;0.656634;0.653083;0.645580;0.653859;0.642289;0.642253;0.643851;0.634941;0.643581;0.637325;0.630831;0.632420;0.631452;0.631919;0.629625;0.630757;0.625837;0.624093;0.627606;0.622367;0.623576;0.625230;0.624465;0.623855;0.621121;0.618888;0.622916;0.619432;0.620116;0.619298;0.620775;0.617320;0.616780;0.614373;0.616088;0.619513;0.613606;0.613775;0.613765;0.612341;0.607447;0.609253;0.607186;0.608597;0.603350;0.605964;0.604192;0.604527;0.601563;0.600681;0.598441;0.596506;0.595433;0.594800;0.592492;0.590115;0.591196;0.585869;0.589911;0.585674;0.588268;0.581943;0.579891;0.578463;0.581065;0.574730;0.574756;0.570394;0.572622;0.571147;0.567309;0.565439;0.566692;0.565952;0.562478;0.564908;0.556365;0.560866;0.554854;0.559718;0.556714;0.552583;0.549901;0.554284;0.551297;0.549908;0.549105;0.547057;0.542433;0.544030;0.544108;0.541795;0.539052;0.538384;0.542097;0.537846;0.531997;0.534483;0.534231;0.536498;0.530667;0.529026;0.531002;0.525947;0.531103;0.524982;0.523429;0.524887;0.526473;0.524113;0.527457;0.525809;0.522268;0.518550
0.583631;0.584599;0.590249;0.592755;0.602869;0.607852;0.616772;0.624568;0.627911;0.636124;0.641429;0.649712;0.658075;0.667047;0.672548;0.675889;0.687016;0.696960;0.698417;0.708936;0.711669;0.723911;0.729640;0.738584;0.743818;0.754898;0.754088;0.760459;0.769295;0.778748;0.787999;0.791431;0.794673;0.804468;0.799340;0.805332;0.811082;0.816497;0.814678;0.819423;0.824231;0.822908;0.824270;0.829519;0.823306;0.829196;0.828064;0.827439;0.827660;0.828752;0.826035;0.823095;0.824219;0.816255;0.820070;0.819344;0.813291;0.812286;0.807766;0.805072;0.797638;0.796279;0.792085;0.785659;0.782229;0.782184;0.774662;0.768467;0.762819;0.764462;0.758142;0.753206;0.748248;0.739249;0.732688;0.734182;0.721709;0.720128;0.718635;0.711477;0.713720;0.704383;0.699830;0.696774;0.692303;0.689406;0.677369;0.676805;0.675722;0.665385;0.668511;0.657313;0.656306;0.649666;0.649765;0.637077;0.644355;0.633744;0.628653;0.625760;0.625165;0.616889;0.614843;0.614693;0.611704;0.612032;0.601955;0.602807;0.595711;0.595029;0.590224;0.592078;0.591657;0.587040;0.584538;0.587861;0.579728;0.574304;0.577974;0.574238;0.578130;0.574953;0.576333;0.567459;0.567923;0.574136;0.569718;0.569983;0.576031;0.569653;0.570834;0.568859;0.565811;0.571526;0.569225;0.570414;0.571122;0.572386;0.569041;0.572649;0.571530;0.571379;0.570928;0.572758;0.572941;0.578304;0.574597;0.578150;0.576553;0.578975;0.581162;0.573286;0.576855;0.580267;0.581135;0.577415;0.575081;0.572456;0.572448;0.579157;0.574499;0.574230;0.574714;0.572108;0.569652;0.571074;0.569560;0.563161;0.567799;0.570471;0.563733;0.561823;0.559374;0.563699;0.563829;0.558949;0.556925;0.553668;0.554059;0.555182;0.550138;0.550345;0.544076;0.547878;0.544820;0.540637;0.538804;0.536135;0.534418;0.530332;0.534557;0.527937;0.531345;0.525143;0.530253;0.525508;0.521333;0.524069;0.519071;0.523354
0.559354;0.567298;0.569011;0.577078;0.579284;0.581987;0.587795;0.590195;0.600026;0.603329;0.609342;0.618598;0.622951;0.624743;0.630787;0.636940;0.640107;0.648856;0.657037;0.657101;0.661125;0.674233;0.673185;0.680956;0.689583;0.694772;0.693327;0.706272;0.702228;0.709634;0.717792;0.721578;0.719622;0.726702;0.728868;0.734301;0.731241;0.734914;0.735793;0.740978;0.742205;0.742535;0.740158;0.744415;0.743006;0.743719;0.742240;0.743533;0.744380;0.740485;0.738198;0.733697;0.733294;0.733376;0.728839;0.723461;0.724600;0.722791;0.715696;0.716320;0.713614;0.710499;0.708779;0.708633;0.702077;0.697649;0.692739;0.693649;0.687342;0.683152;0.677032;0.674718;0.679989;0.676445;0.671215;0.666515;0.665952;0.669427;0.667394;0.663737;0.662125;0.661055;0.661830;0.657678;0.651746;0.656395;0.654838;0.658810;0.655634;0.653728;0.658082;0.655062;0.657586;0.659300;0.653571;0.659311;0.663773;0.660544;0.661253;0.660137;0.663927;0.666561;0.667677;0.669631;0.667405;0.667859;0.670254;0.674036;0.667048;0.668196;0.673624;0.671814;0.675290;0.676642;0.679609;0.678418;0.676248;0.674622;0.679703;0.678590;0.676790;0.678263;0.677403;0.679780;0.675708;0.675196;0.677173;0.672329;0.674119;0.675481;0.671128;0.676985;0.673717;0.669814;0.670720;0.666238;0.667598;0.664706;0.663909;0.656153;0.657328;0.653769;0.654005;0.654360;0.650362;0.645873;0.646009;0.640280;0.645994;0.636485;0.635752;0.634418;0.634093;0.628032;0.625326;0.623668;0.623063;0.616062;0.618274;0.613844;0.611616;0.609604;0.602365;0.600245;0.600908;0.600842;0.596766;0.595080;0.592486;0.588827;0.584993;0.582081;0.582484;0.580141;0.575762;0.575890;0.566467;0.566603;0.567580;0.559806;0.551453;0.555151;0.556169;0.551335;0.546834;0.548909;0.547948;0.543288;0.540924;0.539776;0.537561;0.535198;0.528214;0.530831;0.527285;0.526031;0.526235;0.521191;0.518633;0.521954
0.532697;0.537019;0.538028;0.540181;0.544936;0.549254;0.550939;0.551013;0.552985;0.556667;0.560947;0.560935;0.564110;0.568126;0.570210;0.572707;0.575028;0.581280;0.582927;0.587627;0.589772;0.592305;0.598563;0.598130;0.599079;0.603495;0.607123;0.604267;0.603763;0.607705;0.613532;0.614972;0.617593;0.620767;0.618155;0.617797;0.621956;0.618645;0.620628;0.630199;0.624352;0.624117;0.627853;0.623207;0.621020;0.624924;0.624707;0.623133;0.621309;0.622528;0.620584;0.617921;0.618437;0.614655;0.615020;0.615637;0.607313;0.611199;0.609730;0.599492;0.598309;0.604746;0.598391;0.595954;0.593428;0.596988;0.593632;0.596147;0.593370;0.592202;0.592092;0.596920;0.592483;0.592688;0.593275;0.591649;0.595771;0.593895;0.595038;0.596805;0.598667;0.604672;0.604908;0.608014;0.602294;0.613694;0.616832;0.613279;0.615084;0.624300;0.630460;0.631914;0.632952;0.638666;0.648258;0.645348;0.650313;0.656122;0.655508;0.668166;0.672078;0.677406;0.675321;0.684004;0.689441;0.694550;0.704033;0.704035;0.709623;0.715003;0.718352;0.723843;0.729523;0.728620;0.732998;0.733616;0.736489;0.743659;0.749807;0.755576;0.759736;0.754311;0.761089;0.759307;0.759520;0.763305;0.762653;0.767928;0.767770;0.771092;0.771876;0.770683;0.774234;0.776700;0.772690;0.769109;0.771120;0.772212;0.773599;0.771449;0.769488;0.766581;0.767602;0.764329;0.762348;0.759991;0.760589;0.756952;0.757258;0.750695;0.753217;0.749366;0.751787;0.742347;0.737131;0.732486;0.737444;0.729191;0.726842;0.725878;0.718717;0.716611;0.713355;0.705306;0.704768;0.695821;0.696470;0.693255;0.687606;0.683901;0.680691;0.672262;0.665163;0.662512;0.657736;0.650839;0.653378;0.642814;0.631972;0.635293;0.624308;0.621834;0.618231;0.613657;0.609734;0.598714;0.598052;0.595352;0.587509;0.581553;0.579322;0.576064;0.571382;0.565096;0.566363;0.555756;0.559336;0.552002;0.547280;0.545145
0.540860;0.547170;0.548401;0.554759;0.558127;0.560664;0.563997;0.570603;0.570436;0.573616;0.582125;0.583061;0.583297;0.593634;0.599418;0.599581;0.604475;0.610082;0.617256;0.614481;0.620006;0.629545;0.636076;0.636115;0.638714;0.647965;0.648498;0.654138;0.657043;0.662001;0.664395;0.665387;0.667791;0.672407;0.676675;0.680682;0.682259;0.691460;0.690179;0.691486;0.696330;0.700393;0.701935;0.702846;0.708538;0.708659;0.704865;0.708729;0.709189;0.713562;0.711626;0.718669;0.718022;0.715263;0.717919;0.723024;0.722375;0.719252;0.725529;0.723634;0.725510;0.725919;0.724082;0.728317;0.724215;0.724310;0.730825;0.723914;0.728141;0.728072;0.726398;0.731098;0.730330;0.727060;0.726329;0.733572;0.731307;0.728905;0.729363;0.729639;0.729221;0.729018;0.730696;0.734228;0.732958;0.729931;0.732760;0.735540;0.734846;0.737635;0.735334;0.737006;0.735841;0.734500;0.738982;0.740539;0.738195;0.736785;0.742241;0.744041;0.736757;0.742072;0.739424;0.741583;0.742048;0.744496;0.747794;0.740767;0.744642;0.742896;0.739468;0.742846;0.744383;0.737984;0.742719;0.738573;0.736888;0.732845;0.736964;0.728473;0.726803;0.728179;0.726096;0.721970;0.723029;0.712051;0.712956;0.709802;0.701579;0.699793;0.696844;0.695023;0.691119;0.685623;0.680656;0.679226;0.676210;0.668008;0.660590;0.658927;0.651289;0.653851;0.645241;0.644382;0.635082;0.635907;0.628464;0.625636;0.619102;0.615346;0.609111;0.608671;0.599199;0.601310;0.593451;0.591515;0.588649;0.583856;0.576708;0.573446;0.571211;0.563162;0.567120;0.566243;0.555063;0.553408;0.556783;0.551963;0.550491;0.546326;0.546814;0.545296;0.533792;0.540516;0.540484;0.532428;0.531636;0.526633;0.528761;0.526385;0.522655;0.527222;0.520859;0.523983;0.519768;0.516394;0.519639;0.520495;0.516017;0.517110;0.517485;0.514544;0.517562;0.509995;0.512256;0.511487;0.507917;0.505818;0.507576;0.507089
0.590871;0.597449;0.603879;0.612223;0.614688;0.623233;0.631746;0.638117;0.645483;0.652171;0.663256;0.666927;0.676559;0.682939;0.694380;0.703826;0.711169;0.717174;0.726277;0.728320;0.742382;0.752348;0.757152;0.765908;0.775464;0.779993;0.787682;0.791479;0.805646;0.812890;0.816189;0.826371;0.824826;0.830491;0.839147;0.839118;0.836794;0.848597;0.853283;0.848597;0.852208;0.854399;0.856142;0.855216;0.855378;0.853243;0.856105;0.847853;0.848177;0.847079;0.845278;0.839761;0.841412;0.836088;0.837944;0.829297;0.830045;0.820581;0.821190;0.810965;0.808477;0.798114;0.796175;0.788744;0.784047;0.775831;0.773360;0.756944;0.759352;0.753378;0.746097;0.741924;0.733203;0.731786;0.728269;0.718496;0.712233;0.709216;0.705316;0.697008;0.695215;0.687666;0.687122;0.674863;0.671759;0.665493;0.665510;0.658810;0.654463;0.650433;0.642622;0.642996;0.640762;0.633322;0.632853;0.625463;0.624707;0.617220;0.615943;0.616568;0.608722;0.606792;0.606638;0.603557;0.599411;0.597082;0.594900;0.593198;0.585623;0.587199;0.584344;0.584961;0.586610;0.574367;0.573894;0.574843;0.574738;0.572175;0.575822;0.567717;0.564567;0.566915;0.568943;0.561082;0.565652;0.568750;0.562592;0.559762;0.559327;0.559779;0.558718;0.556254;0.554928;0.560596;0.554898;0.555782;0.555171;0.556837;0.552189;0.554928;0.552686;0.555863;0.559061;0.554257;0.549474;0.552375;0.552230;0.551094;0.549416;0.551049;0.550268;0.552543;0.546007;0.547575;0.545777;0.550092;0.543353;0.548625;0.543470;0.543650;0.545923;0.537720;0.543060;0.548192;0.538566;0.538403;0.540927;0.538499;0.537636;0.537030;0.537584;0.528857;0.531561;0.534378;0.532731;0.530756;0.525367;0.534137;0.528467;0.521364;0.525797;0.516258;0.518341;0.519148;0.519878;0.526002;0.512059;0.513235;0.514760;0.512684;0.513668;0.512721;0.510166;0.510163;0.509131;0.506120;0.507290;0.508591;0.505808;0.505384
0.573349;0.582447;0.587443;0.588523;0.601850;0.602996;0.611654;0.613427;0.623907;0.628494;0.635502;0.640066;0.649579;0.652138;0.662775;0.671656;0.674103;0.680991;0.688493;0.697510;0.703030;0.712873;0.711972;0.717447;0.726752;0.733777;0.736634;0.743111;0.746824;0.756460;0.760345;0.762701;0.764557;0.773486;0.774605;0.771659;0.777221;0.781408;0.780568;0.783803;0.784591;0.783487;0.781498;0.781361;0.777099;0.778928;0.777987;0.778317;0.774449;0.770787;0.767339;0.758930;0.761431;0.755088;0.753925;0.745512;0.745747;0.743779;0.733055;0.726772;0.717825;0.715692;0.708582;0.710102;0.698687;0.697295;0.693153;0.689615;0.677669;0.678804;0.669559;0.665986;0.659781;0.656975;0.654678;0.649232;0.645496;0.638382;0.637878;0.632527;0.629625;0.630237;0.625571;0.628042;0.620586;0.615397;0.619364;0.618457;0.611074;0.614350;0.612944;0.614974;0.617004;0.614693;0.614192;0.613932;0.616794;0.614866;0.616277;0.617216;0.619056;0.622592;0.613369;0.613977;0.621089;0.622749;0.618310;0.623401;0.623525;0.634354;0.630149;0.629503;0.630213;0.636227;0.635642;0.635179;0.637165;0.636763;0.640592;0.637069;0.642137;0.643418;0.643020;0.643405;0.644852;0.647214;0.649511;0.646015;0.647958;0.645335;0.645965;0.650470;0.646769;0.650450;0.649746;0.644663;0.645395;0.645598;0.649480;0.648149;0.647438;0.647645;0.643588;0.646458;0.639148;0.641951;0.639523;0.631976;0.642849;0.639306;0.635754;0.637706;0.635419;0.634386;0.628482;0.629854;0.629238;0.628940;0.626342;0.622357;0.620152;0.616815;0.613771;0.611720;0.610427;0.612526;0.606284;0.605915;0.600576;0.596182;0.597241;0.591666;0.591816;0.588891;0.581341;0.583953;0.578253;0.579497;0.574658;0.567382;0.573686;0.570183;0.564666;0.561476;0.559686;0.555714;0.558418;0.549813;0.549742;0.547441;0.540025;0.540052;0.543532;0.535773;0.532205;0.537894;0.531380;0.530511;0.526113;0.523698
0.541280;0.549859;0.552115;0.549684;0.554650;0.558682;0.560082;0.567802;0.568258;0.572462;0.575330;0.581413;0.585284;0.593788;0.594941;0.598923;0.601354;0.602134;0.608774;0.616062;0.613615;0.623477;0.629230;0.631328;0.639610;0.641290;0.643644;0.647442;0.648697;0.658409;0.658130;0.660503;0.663550;0.668418;0.670730;0.675507;0.679515;0.677641;0.684113;0.688700;0.690976;0.688559;0.697219;0.698759;0.695274;0.700381;0.702343;0.702628;0.707889;0.706731;0.704075;0.709803;0.707656;0.708102;0.705499;0.711068;0.708840;0.708334;0.712867;0.713444;0.710318;0.713179;0.706211;0.712075;0.711774;0.708743;0.706083;0.708795;0.705895;0.708570;0.707912;0.711506;0.711263;0.704520;0.708504;0.700810;0.699070;0.701495;0.695741;0.697164;0.702025;0.694671;0.694657;0.694711;0.693964;0.689745;0.686476;0.687118;0.683147;0.681969;0.683900;0.683633;0.677945;0.678171;0.676705;0.670632;0.669983;0.670859;0.671586;0.670923;0.666318;0.667608;0.663078;0.663985;0.663342;0.660421;0.656428;0.657388;0.661611;0.655485;0.656185;0.653756;0.656542;0.653337;0.653600;0.651572;0.653600;0.653030;0.651959;0.651771;0.653240;0.653351;0.653263;0.652702;0.650794;0.653403;0.654734;0.655333;0.656718;0.654930;0.657558;0.659044;0.656675;0.658150;0.653832;0.663439;0.664006;0.657482;0.660412;0.662699;0.658824;0.659031;0.665140;0.662876;0.664312;0.665496;0.665009;0.668370;0.662157;0.670021;0.670651;0.664233;0.665579;0.664741;0.665257;0.662084;0.668864;0.658507;0.659569;0.658752;0.658086;0.654574;0.650885;0.650987;0.648067;0.647995;0.643423;0.637053;0.637387;0.641135;0.635812;0.629208;0.623621;0.629375;0.621098;0.620383;0.610571;0.612822;0.607631;0.602677;0.600212;0.592280;0.594461;0.583940;0.585584;0.580921;0.579453;0.578458;0.573678;0.566455;0.565788;0.561401;0.554551;0.552836;0.550758;0.549622;0.542228;0.540746;0.543099;0.537197
0.504079;0.506116;0.506262;0.506600;0.506240;0.508409;0.504617;0.507764;0.508664;0.507506;0.512407;0.510750;0.514403;0.511407;0.513647;0.515245;0.510437;0.518273;0.519595;0.517221;0.520585;0.515550;0.520053;0.518683;0.521901;0.527342;0.521442;0.528546;0.527267;0.530259;0.533984;0.538490;0.533042;0.537215;0.542060;0.541442;0.549222;0.547755;0.550958;0.549437;0.552656;0.558043;0.558832;0.563969;0.565888;0.570147;0.569336;0.572560;0.583631;0.579368;0.584010;0.590097;0.593472;0.591035;0.600149;0.602723;0.605250;0.608305;0.611188;0.611903;0.624290;0.620164;0.625758;0.626859;0.630821;0.634284;0.632032;0.637894;0.638569;0.643958;0.648125;0.645715;0.649690;0.651460;0.652240;0.651249;0.658004;0.654588;0.660446;0.653912;0.662099;0.660486;0.659193;0.658513;0.662383;0.659335;0.659234;0.656980;0.664674;0.660869;0.657728;0.654672;0.656780;0.656575;0.657466;0.655479;0.652169;0.651079;0.649771;0.643208;0.641900;0.651230;0.647963;0.650168;0.648417;0.647374;0.645560;0.646650;0.650643;0.640666;0.646626;0.645290;0.647922;0.651208;0.648857;0.654622;0.652987;0.652527;0.654969;0.659075;0.661398;0.664139;0.671468;0.673214;0.671314;0.682302;0.682800;0.686913;0.695931;0.699441;0.705297;0.706364;0.710241;0.719192;0.719230;0.727803;0.734989;0.739805;0.747655;0.750004;0.757030;0.761003;0.766758;0.775762;0.772292;0.784198;0.788256;0.789824;0.793696;0.801170;0.802258;0.802727;0.806036;0.812798;0.811699;0.810260;0.813459;0.810876;0.810206;0.808223;0.809294;0.808822;0.806368;0.800781;0.802301;0.802441;0.796562;0.793971;0.786621;0.785688;0.775124;0.772610;0.768175;0.763448;0.753586;0.748768;0.740322;0.740055;0.729422;0.717783;0.711716;0.703512;0.698062;0.687238;0.678202;0.677193;0.669881;0.660568;0.655992;0.642575;0.636282;0.632070;0.623998;0.615214;0.613202;0.612201;0.597185;0.592254;0.591415;0.581179
0.533089;0.538989;0.542909;0.539873;0.542886;0.550190;0.547752;0.555681;0.559914;0.554940;0.564504;0.566516;0.571613;0.574392;0.579761;0.579334;0.582032;0.589489;0.590876;0.592732;0.593202;0.598713;0.606063;0.606322;0.612271;0.613880;0.620789;0.620981;0.620725;0.630609;0.629481;0.636452;0.635398;0.643346;0.643629;0.641553;0.647094;0.648045;0.651694;0.660292;0.661167;0.660684;0.667471;0.664316;0.668100;0.668931;0.670160;0.673929;0.675472;0.672931;0.677079;0.678448;0.677027;0.680825;0.677423;0.679111;0.682168;0.683996;0.685851;0.686609;0.685147;0.682227;0.682113;0.683168;0.683683;0.685189;0.685812;0.684645;0.682590;0.684146;0.685095;0.685795;0.681401;0.672807;0.677362;0.680092;0.673197;0.677444;0.676235;0.673288;0.671940;0.669570;0.671408;0.665112;0.670516;0.662783;0.659784;0.657390;0.664565;0.650987;0.650695;0.651725;0.652467;0.648249;0.645130;0.648649;0.642880;0.638040;0.642350;0.638518;0.634022;0.630150;0.633674;0.630144;0.632318;0.628896;0.629902;0.622116;0.622639;0.625626;0.626586;0.625338;0.628343;0.627978;0.627657;0.624862;0.627601;0.630420;0.631079;0.633284;0.635854;0.636957;0.634291;0.640237;0.641324;0.644925;0.647682;0.649318;0.657569;0.662342;0.658330;0.663526;0.665713;0.671179;0.675211;0.672742;0.678377;0.685452;0.688971;0.688465;0.693612;0.696974;0.697900;0.705659;0.705035;0.708554;0.711328;0.720686;0.719169;0.720377;0.724200;0.722575;0.729035;0.730639;0.729228;0.725113;0.723790;0.731325;0.731642;0.731995;0.731374;0.727170;0.726631;0.726745;0.723503;0.721719;0.717831;0.714678;0.707473;0.705194;0.701041;0.701086;0.697751;0.688888;0.690693;0.683035;0.676902;0.675752;0.665409;0.661977;0.658627;0.650502;0.649290;0.641820;0.634721;0.632342;0.625727;0.614026;0.613613;0.611377;0.600528;0.598038;0.594741;0.592201;0.583759;0.580919;0.575394;0.567253;0.570269;0.565217
0.545787;0.550004;0.553912;0.550914;0.557273;0.564682;0.569138;0.568095;0.571418;0.573801;0.583416;0.584700;0.588943;0.589614;0.598036;0.601078;0.601930;0.608889;0.612056;0.617600;0.619735;0.630254;0.623996;0.634597;0.641969;0.641524;0.649713;0.651332;0.657794;0.662482;0.666308;0.669142;0.671545;0.677919;0.676771;0.686668;0.690355;0.694007;0.695230;0.695319;0.702177;0.702234;0.704796;0.708670;0.704139;0.707866;0.713304;0.715993;0.715089;0.715877;0.713723;0.720839;0.719605;0.720430;0.726676;0.717375;0.720395;0.721319;0.723163;0.723726;0.724867;0.720551;0.716320;0.721528;0.722993;0.724727;0.720496;0.718149;0.715621;0.719562;0.714712;0.716350;0.714886;0.712150;0.714719;0.711767;0.715197;0.707995;0.705982;0.699695;0.702291;0.698043;0.700896;0.695909;0.691162;0.697187;0.688075;0.691961;0.682291;0.684472;0.677311;0.673791;0.676009;0.666882;0.664528;0.668336;0.666389;0.658783;0.659500;0.653798;0.655583;0.651593;0.650613;0.643561;0.642342;0.645432;0.643973;0.635864;0.637919;0.636055;0.633981;0.630377;0.630136;0.626508;0.629877;0.626449;0.626441;0.626533;0.629864;0.627335;0.628078;0.630157;0.624846;0.627477;0.629619;0.626076;0.625388;0.630038;0.633082;0.630775;0.638539;0.633236;0.638345;0.639952;0.642357;0.644195;0.643946;0.647720;0.651172;0.647437;0.652159;0.658206;0.654702;0.653488;0.658062;0.656465;0.662212;0.659865;0.664837;0.665752;0.662131;0.665475;0.663863;0.664754;0.665844;0.665747;0.660013;0.666705;0.663192;0.661222;0.662613;0.662834;0.661702;0.659184;0.660204;0.651929;0.655281;0.651329;0.646209;0.643126;0.639235;0.641010;0.636184;0.633020;0.630243;0.627057;0.625118;0.619238;0.610848;0.605787;0.606500;0.604640;0.602602;0.599873;0.593872;0.592355;0.584061;0.582532;0.576735;0.577525;0.571495;0.564241;0.565151;0.560252;0.556294;0.556788;0.550761;0.547241;0.544352;0.542769
0.530927;0.535825;0.538448;0.538578;0.542098;0.544643;0.542758;0.547332;0.552964;0.556319;0.552056;0.559678;0.560481;0.563982;0.567017;0.574811;0.575082;0.573221;0.577997;0.579693;0.578699;0.584806;0.589348;0.589620;0.594132;0.594482;0.601479;0.601072;0.604120;0.606923;0.607833;0.605901;0.613052;0.612866;0.615518;0.617941;0.621208;0.620260;0.625786;0.622749;0.620418;0.621279;0.622813;0.620857;0.620236;0.623499;0.628008;0.626695;0.625581;0.619120;0.623430;0.624966;0.616430;0.620004;0.620941;0.613124;0.613362;0.612361;0.610707;0.607703;0.608689;0.606657;0.606665;0.603409;0.600933;0.604456;0.596850;0.597818;0.598903;0.593386;0.589744;0.588507;0.585487;0.585050;0.586362;0.585262;0.579476;0.578130;0.581842;0.571645;0.580443;0.574657;0.572707;0.570219;0.575556;0.572965;0.574677;0.568088;0.570646;0.565456;0.567626;0.570425;0.570952;0.567463;0.566717;0.568999;0.571286;0.574746;0.565891;0.569577;0.577094;0.574931;0.580330;0.577355;0.580206;0.580149;0.583567;0.592763;0.588404;0.591130;0.596956;0.597191;0.596568;0.605967;0.610663;0.616647;0.612684;0.621214;0.626238;0.628538;0.639477;0.639869;0.645564;0.651367;0.658031;0.663084;0.663457;0.671817;0.686686;0.688055;0.696189;0.700606;0.709188;0.719137;0.729658;0.729184;0.735212;0.745870;0.748214;0.759287;0.765841;0.767003;0.774547;0.784083;0.790485;0.797342;0.799614;0.804480;0.803426;0.814609;0.818752;0.822378;0.830047;0.827307;0.826249;0.830767;0.831297;0.835722;0.830848;0.833045;0.830257;0.829019;0.826942;0.827533;0.823363;0.823528;0.817456;0.811906;0.813246;0.805393;0.798671;0.790246;0.785278;0.781043;0.770930;0.768183;0.758026;0.758736;0.747540;0.735909;0.726571;0.721169;0.713113;0.708113;0.697550;0.689058;0.685372;0.679003;0.669561;0.659447;0.650690;0.644025;0.636200;0.629868;0.622352;0.616512;0.612803;0.606256;0.597936;0.592537
0.537949;0.541223;0.543757;0.549731;0.551176;0.557686;0.554291;0.564928;0.562477;0.567337;0.570631;0.574138;0.576613;0.582485;0.582943;0.593054;0.594617;0.593897;0.599452;0.604250;0.607249;0.608113;0.617909;0.622595;0.622848;0.624527;0.630404;0.636329;0.640020;0.641008;0.643027;0.651392;0.650426;0.654921;0.658749;0.654850;0.663816;0.670434;0.671394;0.672480;0.678052;0.672997;0.679881;0.680374;0.683849;0.687440;0.688507;0.691602;0.685436;0.691094;0.694981;0.689289;0.694748;0.694126;0.696586;0.698160;0.701141;0.698737;0.698359;0.703922;0.700533;0.698637;0.703401;0.703619;0.699564;0.700261;0.701173;0.699578;0.704028;0.701825;0.698139;0.697051;0.699798;0.699924;0.695747;0.697671;0.696746;0.699196;0.691791;0.692608;0.688958;0.684878;0.691146;0.694063;0.687896;0.685489;0.682250;0.682786;0.678526;0.682629;0.680046;0.676222;0.682632;0.675712;0.674731;0.673347;0.670454;0.673081;0.667584;0.672236;0.669002;0.668707;0.661873;0.664620;0.663281;0.656594;0.656974;0.663424;0.652287;0.652295;0.655894;0.658593;0.661889;0.653607;0.651399;0.655574;0.658548;0.651658;0.657094;0.652803;0.656999;0.656726;0.658842;0.658330;0.660969;0.661681;0.658307;0.666183;0.666016;0.666993;0.663662;0.665625;0.668872;0.664037;0.671579;0.668852;0.674476;0.671383;0.675124;0.674482;0.680867;0.680381;0.684912;0.683700;0.684774;0.684634;0.685794;0.686926;0.684326;0.689048;0.692865;0.685604;0.689991;0.682316;0.682084;0.684904;0.684606;0.679992;0.684814;0.682116;0.680551;0.676605;0.675354;0.680006;0.669114;0.669772;0.665163;0.666895;0.661176;0.663801;0.653328;0.652556;0.646970;0.642782;0.639207;0.637311;0.632548;0.631126;0.619604;0.622581;0.618168;0.619062;0.612082;0.605785;0.600677;0.593055;0.590498;0.585274;0.581204;0.578001;0.578042;0.570623;0.571250;0.568931;0.560283;0.557952;0.557087;0.552794;0.549465;0.548328
0.518750;0.516690;0.513991;0.518076;0.518498;0.523964;0.523423;0.523783;0.525776;0.531752;0.529955;0.531035;0.536551;0.535161;0.539487;0.539725;0.544103;0.541132;0.544377;0.545891;0.552138;0.548726;0.551975;0.556978;0.555669;0.560423;0.559956;0.563697;0.567821;0.573482;0.569872;0.571426;0.581055;0.576653;0.578828;0.589485;0.584453;0.590432;0.590685;0.591937;0.591155;0.600086;0.603835;0.604038;0.604984;0.607236;0.612228;0.613404;0.618467;0.621386;0.618135;0.616798;0.619596;0.632068;0.629755;0.631828;0.633914;0.636027;0.645248;0.637773;0.646964;0.648469;0.653325;0.658899;0.658282;0.668193;0.663102;0.664282;0.670047;0.673297;0.677735;0.677247;0.684733;0.683385;0.686340;0.687021;0.688294;0.695962;0.699189;0.697014;0.700307;0.707119;0.709217;0.707230;0.708761;0.711246;0.720716;0.720546;0.721774;0.726556;0.728365;0.723169;0.731708;0.737206;0.735447;0.739026;0.738460;0.741629;0.745472;0.742451;0.746822;0.747421;0.742848;0.753438;0.755953;0.753996;0.758440;0.763537;0.760040;0.757188;0.765421;0.763675;0.767140;0.766385;0.762315;0.766625;0.766082;0.766956;0.766780;0.768063;0.766309;0.767717;0.767318;0.767872;0.765444;0.768071;0.765469;0.761169;0.760451;0.757629;0.759271;0.757465;0.749429;0.751157;0.753250;0.746134;0.743418;0.741193;0.744721;0.738537;0.736675;0.737899;0.734143;0.732136;0.726844;0.725408;0.717103;0.720774;0.711360;0.709598;0.706546;0.704684;0.700689;0.695575;0.691902;0.689649;0.690388;0.683704;0.675903;0.680628;0.674310;0.667446;0.667216;0.659295;0.659639;0.662317;0.650400;0.649598;0.637361;0.640805;0.630268;0.630448;0.625628;0.626867;0.622065;0.617213;0.608938;0.607895;0.602513;0.599031;0.597728;0.592012;0.594109;0.589374;0.580784;0.575918;0.574032;0.571497;0.567609;0.563228;0.563148;0.557906;0.559057;0.555509;0.550336;0.547605;0.543458;0.542605;0.539027;0.534082
0.508284;0.507541;0.509494;0.503263;0.504915;0.508671;0.510220;0.514768;0.513118;0.511082;0.513600;0.518163;0.513640;0.516765;0.516251;0.516732;0.519034;0.524478;0.520629;0.517548;0.521818;0.524836;0.520880;0.526875;0.528720;0.530922;0.527485;0.530909;0.530036;0.533412;0.535315;0.534135;0.537014;0.537672;0.534754;0.547812;0.540379;0.543431;0.548346;0.546246;0.548981;0.553543;0.553883;0.558659;0.557586;0.559799;0.563652;0.556187;0.564643;0.566233;0.568414;0.568506;0.570836;0.572545;0.575068;0.578102;0.580241;0.584108;0.583936;0.587075;0.591320;0.597500;0.592816;0.592415;0.599323;0.599109;0.601918;0.603525;0.607143;0.606281;0.613112;0.614311;0.616745;0.620042;0.622123;0.621805;0.621875;0.631765;0.630031;0.640700;0.639251;0.636261;0.636175;0.644283;0.648020;0.648823;0.648164;0.647428;0.649234;0.653564;0.653154;0.656733;0.663517;0.666987;0.666682;0.666554;0.673100;0.675509;0.672716;0.677421;0.682074;0.683864;0.683112;0.686078;0.690729;0.691447;0.694775;0.697535;0.703430;0.707577;0.709609;0.714311;0.706330;0.718554;0.719964;0.721851;0.724656;0.725359;0.727247;0.729774;0.736709;0.734744;0.738160;0.742834;0.742040;0.744663;0.747790;0.754087;0.756734;0.754549;0.765752;0.759220;0.766913;0.769901;0.766594;0.773820;0.768611;0.776597;0.783524;0.781009;0.783705;0.788993;0.786659;0.785563;0.789477;0.784992;0.788514;0.788744;0.792678;0.788756;0.787335;0.788651;0.791603;0.783806;0.788195;0.786736;0.782965;0.778172;0.778104;0.775754;0.771400;0.775053;0.768624;0.764226;0.761721;0.751815;0.752337;0.744984;0.743148;0.736580;0.732832;0.724157;0.718731;0.719126;0.707962;0.702496;0.695092;0.690657;0.682292;0.679117;0.669179;0.666165;0.657839;0.654067;0.644602;0.638738;0.629577;0.625031;0.616240;0.613521;0.605470;0.604732;0.590261;0.593022;0.587470;0.577883;0.573112;0.568421;0.563423;0.560082
0.607812;0.618325;0.619888;0.628671;0.636250;0.641075;0.648859;0.656745;0.664800;0.676805;0.686408;0.698862;0.702597;0.713983;0.722948;0.731126;0.743796;0.752198;0.759715;0.767369;0.776606;0.790838;0.797919;0.807558;0.810618;0.822555;0.824363;0.836345;0.838147;0.846801;0.857156;0.860480;0.865738;0.869484;0.875501;0.879057;0.879699;0.882370;0.883725;0.881109;0.883500;0.884421;0.880734;0.879413;0.880389;0.878247;0.873797;0.868411;0.860955;0.858706;0.851856;0.849453;0.843848;0.827949;0.829688;0.815325;0.808715;0.806451;0.788941;0.790460;0.777363;0.771416;0.760767;0.751967;0.743232;0.728352;0.726673;0.714872;0.706473;0.698516;0.692728;0.680393;0.677465;0.667534;0.654177;0.650712;0.642329;0.641808;0.630976;0.621270;0.616879;0.611774;0.603422;0.597231;0.597179;0.588651;0.588789;0.584083;0.580452;0.571848;0.574723;0.572002;0.566553;0.564595;0.564618;0.564955;0.560803;0.559154;0.552754;0.556012;0.553743;0.554288;0.556930;0.552386;0.558879;0.553413;0.555932;0.556075;0.553314;0.555973;0.558241;0.558174;0.562386;0.559405;0.556011;0.561467;0.566106;0.563255;0.571018;0.567781;0.565397;0.566694;0.568092;0.570115;0.570192;0.570320;0.573331;0.573091;0.573115;0.578610;0.575444;0.577257;0.578078;0.580101;0.583004;0.584600;0.584877;0.586034;0.591733;0.590895;0.586039;0.589667;0.589152;0.585629;0.587771;0.592307;0.591711;0.592969;0.591932;0.588104;0.598748;0.594634;0.589267;0.589390;0.592000;0.591441;0.594009;0.589249;0.592796;0.589464;0.589447;0.589522;0.586874;0.584064;0.585640;0.583644;0.585822;0.582487;0.581296;0.575357;0.575100;0.574787;0.574043;0.574164;0.570589;0.571350;0.571294;0.569730;0.561767;0.559730;0.555383;0.562557;0.554312;0.555316;0.550460;0.551643;0.546026;0.545540;0.544175;0.540065;0.539576;0.539616;0.534747;0.528749;0.535796;0.529750;0.528306;0.526530;0.526811;0.522319
0.552507;0.556488;0.566143;0.562683;0.567940;0.571953;0.574808;0.580832;0.583027;0.586773;0.596053;0.596487;0.606989;0.607811;0.611206;0.622253;0.621347;0.627659;0.633860;0.637400;0.645090;0.650123;0.650168;0.660821;0.662059;0.663828;0.672651;0.675664;0.677198;0.682636;0.688476;0.697807;0.694586;0.702435;0.705594;0.703960;0.709681;0.715943;0.714596;0.720549;0.721587;0.726920;0.722646;0.729367;0.730885;0.727253;0.729057;0.731039;0.729012;0.733479;0.734089;0.733255;0.733869;0.729483;0.730793;0.728679;0.728866;0.726305;0.727835;0.725190;0.723506;0.726645;0.722641;0.725072;0.720498;0.718562;0.714120;0.713184;0.708107;0.713443;0.710797;0.705649;0.703701;0.699559;0.702440;0.699941;0.692965;0.695592;0.694722;0.695765;0.693924;0.683312;0.684937;0.683679;0.679400;0.679770;0.677770;0.675171;0.674882;0.673235;0.669211;0.668937;0.667145;0.664571;0.661338;0.660884;0.657582;0.661739;0.657204;0.658849;0.657896;0.655212;0.655091;0.649953;0.650083;0.649956;0.652366;0.644444;0.643557;0.648502;0.642120;0.645219;0.642223;0.642211;0.643615;0.643445;0.642202;0.642064;0.640345;0.642881;0.645682;0.647789;0.644506;0.636669;0.643877;0.643045;0.642510;0.642583;0.644304;0.645988;0.644366;0.645489;0.644279;0.646499;0.647797;0.648865;0.649649;0.647521;0.645499;0.649521;0.643092;0.645596;0.650949;0.648366;0.652170;0.646191;0.652605;0.653359;0.651717;0.648773;0.652977;0.650223;0.654500;0.645770;0.652010;0.648805;0.647888;0.649648;0.646866;0.643902;0.642242;0.639826;0.638389;0.636276;0.636404;0.631857;0.631989;0.630805;0.626736;0.624235;0.620365;0.617510;0.615252;0.615030;0.608299;0.603749;0.604921;0.601591;0.598374;0.589729;0.590591;0.583458;0.584733;0.582367;0.573603;0.573301;0.574284;0.562407;0.565019;0.561442;0.557953;0.554939;0.552093;0.549716;0.539740;0.545412;0.541151;0.540226;0.536307;0.533259
0.499381;0.498012;0.498999;0.502475;0.503506;0.501824;0.499869;0.506868;0.498629;0.500766;0.502830;0.501095;0.503240;0.502013;0.504251;0.510819;0.505763;0.506385;0.508305;0.504822;0.507518;0.509944;0.512038;0.511555;0.511571;0.513247;0.512834;0.517140;0.515419;0.518914;0.525883;0.520189;0.518194;0.520709;0.526309;0.525857;0.529244;0.529922;0.530619;0.533768;0.534248;0.539344;0.542787;0.541944;0.545379;0.547331;0.550885;0.555417;0.559902;0.559610;0.562755;0.567606;0.571148;0.579155;0.576469;0.582044;0.583992;0.589886;0.593318;0.597273;0.601863;0.601455;0.608888;0.616966;0.615279;0.615177;0.622986;0.621791;0.628934;0.632934;0.636300;0.636434;0.640421;0.640525;0.645245;0.649485;0.650953;0.650023;0.653655;0.657249;0.664110;0.662052;0.660694;0.661768;0.667605;0.670634;0.671013;0.673799;0.674565;0.676428;0.677520;0.671161;0.677077;0.673646;0.676361;0.678217;0.681515;0.679860;0.684214;0.685035;0.680341;0.683234;0.684869;0.685667;0.687293;0.687340;0.689046;0.688842;0.689615;0.690286;0.693752;0.695240;0.695004;0.698443;0.703535;0.703347;0.709605;0.706014;0.706968;0.708666;0.712885;0.714170;0.716641;0.721104;0.722404;0.725915;0.726709;0.736540;0.734705;0.743081;0.737851;0.741345;0.748995;0.754292;0.753341;0.754722;0.764268;0.765901;0.765972;0.771337;0.768511;0.776035;0.782897;0.777440;0.788287;0.788186;0.796255;0.786063;0.796070;0.792845;0.795559;0.794061;0.794259;0.796945;0.796936;0.793795;0.794848;0.792243;0.793209;0.788006;0.786039;0.787394;0.783762;0.782233;0.774615;0.773354;0.773437;0.764411;0.758767;0.756706;0.754402;0.745057;0.738745;0.730129;0.729392;0.718857;0.714612;0.708054;0.700475;0.697271;0.690584;0.677743;0.673249;0.665621;0.659722;0.654235;0.648162;0.641699;0.634493;0.624763;0.621962;0.616256;0.607141;0.601357;0.590577;0.586895;0.588097;0.577790;0.574161;0.567154
0.510908;0.510579;0.514133;0.516811;0.516580;0.520982;0.522537;0.522233;0.524505;0.529964;0.522998;0.526100;0.528351;0.533284;0.533868;0.538706;0.538798;0.539485;0.540778;0.542574;0.545407;0.548123;0.550955;0.550137;0.554383;0.559482;0.561017;0.562478;0.564600;0.570922;0.570413;0.576275;0.577848;0.583964;0.584313;0.585843;0.596133;0.601660;0.602902;0.606213;0.609639;0.613085;0.616988;0.619940;0.631337;0.632485;0.641239;0.643744;0.651834;0.650556;0.660804;0.659942;0.670360;0.674806;0.678169;0.682948;0.691762;0.693794;0.702477;0.701848;0.703807;0.717651;0.720465;0.719798;0.728183;0.731440;0.735075;0.733447;0.736486;0.747454;0.744483;0.751831;0.752394;0.755516;0.752899;0.758453;0.758751;0.760343;0.758945;0.756883;0.757711;0.758538;0.754897;0.759042;0.749819;0.750892;0.748992;0.749796;0.741420;0.739922;0.736403;0.733392;0.727986;0.726488;0.725080;0.716862;0.716239;0.713998;0.707588;0.706096;0.699084;0.695256;0.686228;0.686522;0.679299;0.678332;0.672437;0.672569;0.664960;0.660640;0.655807;0.659326;0.653491;0.652520;0.646774;0.644964;0.643522;0.638988;0.643929;0.639977;0.640573;0.640375;0.638409;0.640930;0.643201;0.643640;0.644982;0.646539;0.647627;0.651268;0.651041;0.653244;0.657610;0.657751;0.658523;0.664842;0.669254;0.673460;0.675596;0.675316;0.681247;0.682144;0.691606;0.686742;0.689250;0.693694;0.700776;0.703150;0.705177;0.705773;0.707698;0.715701;0.715741;0.711220;0.710009;0.717117;0.723033;0.718760;0.718304;0.720263;0.719914;0.716066;0.712699;0.717811;0.711706;0.708929;0.709877;0.707156;0.705256;0.701117;0.696695;0.693320;0.689518;0.691357;0.681640;0.673500;0.675331;0.665888;0.666307;0.655112;0.652103;0.652765;0.645816;0.636538;0.630133;0.630516;0.627105;0.616657;0.615911;0.609684;0.608917;0.597548;0.592764;0.592515;0.584017;0.578580;0.576338;0.566959;0.568686;0.564768
0.531112;0.538110;0.542369;0.541232;0.549660;0.550527;0.552858;0.555445;0.559199;0.563179;0.565327;0.570969;0.573821;0.579092;0.584296;0.580209;0.590402;0.593493;0.597197;0.608047;0.606030;0.611070;0.616206;0.623807;0.623707;0.632648;0.641025;0.644669;0.640968;0.651249;0.655020;0.660129;0.670171;0.666875;0.673691;0.683618;0.688646;0.689263;0.694336;0.700926;0.707183;0.713567;0.719098;0.725587;0.723970;0.727791;0.739497;0.743379;0.745288;0.751889;0.754271;0.759057;0.765259;0.770432;0.774651;0.780332;0.785220;0.787159;0.792796;0.796439;0.799860;0.804404;0.806144;0.809052;0.813825;0.821404;0.819704;0.819286;0.819564;0.828624;0.827581;0.831055;0.832029;0.829287;0.831885;0.827958;0.829042;0.831134;0.835157;0.827571;0.828639;0.823267;0.825467;0.818991;0.815473;0.813506;0.811545;0.806132;0.802522;0.796607;0.796080;0.788269;0.783350;0.779891;0.767246;0.770877;0.762941;0.755793;0.749212;0.745794;0.740246;0.730212;0.725077;0.719575;0.717253;0.704093;0.702738;0.693695;0.684143;0.682391;0.672885;0.668225;0.662243;0.659014;0.652774;0.651202;0.641835;0.639668;0.637451;0.630290;0.621418;0.619616;0.613376;0.611584;0.609387;0.602108;0.605910;0.601056;0.597123;0.591960;0.595394;0.590464;0.591451;0.585552;0.587606;0.586013;0.581318;0.583598;0.582645;0.579647;0.575309;0.577956;0.576273;0.576426;0.577068;0.577584;0.573868;0.570642;0.577116;0.573850;0.568395;0.572542;0.568138;0.566380;0.568674;0.561670;0.568513;0.568027;0.564054;0.565485;0.564871;0.563723;0.559013;0.554783;0.559163;0.554738;0.553776;0.553102;0.555746;0.553681;0.550123;0.549791;0.548941;0.552579;0.546199;0.542601;0.542774;0.543240;0.538328;0.536578;0.536881;0.533312;0.530573;0.533448;0.529434;0.529902;0.527399;0.524258;0.526072;0.523459;0.523217;0.527422;0.517270;0.521488;0.516619;0.515191;0.515147;0.513407;0.513797;0.511396
0.512206;0.514708;0.518007;0.514080;0.520114;0.517190;0.518716;0.520486;0.520734;0.526292;0.530145;0.529714;0.530302;0.529889;0.535973;0.535221;0.539702;0.542314;0.539343;0.539074;0.546084;0.542980;0.548222;0.550381;0.560373;0.557134;0.562777;0.570177;0.569658;0.571326;0.575507;0.583686;0.585049;0.587102;0.592199;0.595641;0.599642;0.608348;0.612749;0.618340;0.619250;0.626130;0.632291;0.639188;0.642676;0.642934;0.650877;0.659213;0.668386;0.670716;0.676373;0.679414;0.688082;0.700496;0.698418;0.706231;0.712536;0.717977;0.722945;0.733587;0.730724;0.739028;0.751657;0.750155;0.757330;0.760469;0.767173;0.771959;0.775933;0.780177;0.787182;0.783226;0.786316;0.785388;0.792066;0.791245;0.796739;0.789018;0.794767;0.794877;0.787273;0.791189;0.795545;0.792003;0.788244;0.784170;0.786941;0.778603;0.774778;0.771231;0.772893;0.763891;0.760186;0.757344;0.751490;0.746737;0.740784;0.731521;0.723941;0.723593;0.714287;0.716135;0.709124;0.698657;0.694891;0.688096;0.683350;0.676850;0.674732;0.669606;0.663091;0.659234;0.656905;0.654785;0.646269;0.636356;0.645482;0.634858;0.633539;0.629751;0.630470;0.633782;0.630000;0.629007;0.624320;0.626308;0.627606;0.630561;0.625652;0.626474;0.631246;0.634227;0.632463;0.635831;0.635005;0.636805;0.640016;0.640855;0.643253;0.645478;0.650555;0.654495;0.649147;0.657545;0.662152;0.662443;0.664222;0.670229;0.669697;0.669552;0.674570;0.679538;0.678094;0.680550;0.682254;0.680769;0.680915;0.680716;0.682441;0.682352;0.682966;0.682025;0.680195;0.679693;0.680920;0.674081;0.674746;0.671921;0.671324;0.665427;0.662967;0.657510;0.658447;0.657732;0.650547;0.648429;0.643588;0.630122;0.636738;0.627585;0.628459;0.624228;0.621029;0.616509;0.608832;0.606693;0.602914;0.601503;0.596236;0.591327;0.583264;0.582957;0.579047;0.577306;0.570741;0.566433;0.563857;0.556710;0.554701;0.558622
0.502361;0.504230;0.503973;0.503961;0.505048;0.506011;0.506408;0.509391;0.508405;0.508477;0.511151;0.508526;0.513509;0.511905;0.513788;0.519735;0.520413;0.523702;0.522139;0.528607;0.527062;0.530801;0.533929;0.534527;0.534655;0.545086;0.546829;0.553133;0.556203;0.564240;0.562727;0.575256;0.577939;0.590385;0.589931;0.599008;0.604159;0.613532;0.619798;0.636684;0.636269;0.642895;0.659913;0.663216;0.676858;0.685787;0.694708;0.702237;0.712149;0.726183;0.735629;0.754402;0.762865;0.773301;0.788121;0.797963;0.808366;0.819483;0.826625;0.844808;0.854734;0.865625;0.876084;0.890400;0.896581;0.905150;0.913577;0.923044;0.933575;0.942861;0.948403;0.955427;0.963667;0.965739;0.973113;0.971735;0.982448;0.978999;0.985936;0.985597;0.989641;0.983360;0.980569;0.985470;0.977996;0.973955;0.967919;0.966559;0.960405;0.953426;0.944482;0.940785;0.928203;0.923874;0.916526;0.900219;0.893283;0.882193;0.871987;0.862578;0.849988;0.839396;0.827069;0.820231;0.806694;0.800418;0.784040;0.771520;0.762711;0.750981;0.740448;0.728001;0.718096;0.700572;0.694552;0.688213;0.672437;0.663751;0.655293;0.651323;0.644196;0.633071;0.621630;0.619429;0.610903;0.607854;0.596833;0.590676;0.586184;0.579842;0.573501;0.574898;0.567306;0.565977;0.558422;0.553898;0.547673;0.547968;0.538800;0.540168;0.536348;0.534227;0.537970;0.534528;0.528419;0.527944;0.527069;0.526442;0.523059;0.524402;0.521611;0.521733;0.523463;0.518420;0.516673;0.518353;0.518223;0.515624;0.516092;0.518521;0.513510;0.516213;0.516151;0.513516;0.515694;0.510854;0.514879;0.515957;0.514743;0.513285;0.514334;0.510013;0.507384;0.507068;0.515448;0.511105;0.511364;0.507258;0.510252;0.507588;0.511750;0.512153;0.512356;0.508534;0.509394;0.509369;0.507646;0.511566;0.499726;0.507916;0.508337;0.510730;0.510921;0.507062;0.507904;0.505449;0.502322;0.505925;0.506589;0.508531
0.506530;0.503934;0.508810;0.503352;0.508722;0.505851;0.507099;0.500263;0.509730;0.508469;0.509575;0.507862;0.508810;0.510206;0.510706;0.510128;0.513475;0.513703;0.513552;0.514701;0.513883;0.523137;0.518924;0.524525;0.525324;0.527243;0.527494;0.527900;0.533934;0.538652;0.536001;0.542076;0.545885;0.546935;0.548734;0.551413;0.553473;0.559284;0.564920;0.572307;0.572251;0.581785;0.586350;0.589285;0.596550;0.600449;0.604895;0.607343;0.617018;0.622880;0.629992;0.632407;0.643881;0.651724;0.656813;0.660950;0.664772;0.676001;0.683237;0.685640;0.691309;0.702049;0.714751;0.720558;0.721599;0.730019;0.733953;0.742205;0.747047;0.750365;0.760867;0.765617;0.767350;0.777182;0.781457;0.789006;0.795711;0.795300;0.802221;0.805229;0.810468;0.813353;0.816314;0.824049;0.823936;0.827859;0.829941;0.831970;0.833839;0.840013;0.838663;0.837324;0.840928;0.840850;0.843141;0.841387;0.842867;0.845322;0.846366;0.849080;0.847598;0.846047;0.844812;0.842516;0.846846;0.841394;0.834968;0.831440;0.836877;0.836909;0.829316;0.830027;0.826834;0.824594;0.825091;0.819443;0.813949;0.808226;0.810748;0.802610;0.796679;0.798192;0.793736;0.788571;0.784993;0.776530;0.774002;0.764464;0.763810;0.758671;0.747220;0.747395;0.737376;0.733671;0.728700;0.721726;0.719197;0.709772;0.707907;0.693685;0.689829;0.682863;0.682581;0.674791;0.665187;0.661420;0.654977;0.650982;0.644638;0.642187;0.630808;0.626772;0.623621;0.619238;0.612735;0.608569;0.601927;0.596616;0.591108;0.586867;0.581976;0.583547;0.577476;0.572282;0.569617;0.562805;0.562913;0.563975;0.553973;0.550652;0.549072;0.543986;0.544964;0.539470;0.539978;0.534978;0.541206;0.531617;0.532341;0.531198;0.526413;0.527152;0.521950;0.521395;0.523509;0.521929;0.522656;0.520750;0.513935;0.515450;0.513534;0.509557;0.513479;0.510632;0.512104;0.506511;0.509446;0.508941;0.514974;0.505451
0.553826;0.561095;0.564195;0.566278;0.571438;0.573831;0.576832;0.583005;0.587627;0.594605;0.595220;0.605363;0.613006;0.613010;0.618944;0.627491;0.623517;0.630751;0.634158;0.645624;0.645431;0.654210;0.653055;0.668388;0.672409;0.676975;0.679249;0.682669;0.687860;0.694344;0.698419;0.700772;0.704588;0.709818;0.715207;0.723468;0.722107;0.729107;0.724052;0.729846;0.733228;0.735628;0.737980;0.734296;0.742978;0.747520;0.747324;0.746865;0.744412;0.743795;0.745670;0.750223;0.752755;0.750652;0.751948;0.749568;0.752265;0.746144;0.749361;0.746363;0.746360;0.743020;0.748083;0.746607;0.746622;0.742581;0.741231;0.740544;0.739591;0.741135;0.740610;0.734262;0.735403;0.735065;0.734459;0.738002;0.737439;0.731206;0.732600;0.730144;0.728660;0.728116;0.728559;0.730861;0.730692;0.726459;0.725493;0.728405;0.727533;0.721996;0.727086;0.730125;0.727381;0.728851;0.723510;0.728169;0.727714;0.723967;0.726466;0.722934;0.720495;0.722966;0.725950;0.721876;0.721789;0.723626;0.721219;0.725080;0.719437;0.718972;0.717641;0.712562;0.714488;0.711846;0.713747;0.709722;0.711373;0.707255;0.707598;0.704073;0.697732;0.696276;0.697286;0.691972;0.693436;0.683564;0.680706;0.677178;0.672565;0.671181;0.667541;0.661130;0.654422;0.654683;0.656166;0.647197;0.639256;0.632643;0.632844;0.628622;0.625686;0.617685;0.621601;0.614533;0.606549;0.602383;0.597589;0.595754;0.589924;0.585165;0.581892;0.570771;0.573200;0.568307;0.564457;0.561304;0.557697;0.553101;0.550504;0.544521;0.544869;0.540881;0.539392;0.535130;0.535394;0.531153;0.529340;0.526685;0.522194;0.523111;0.525997;0.511939;0.523754;0.514772;0.512851;0.509952;0.507681;0.510837;0.510319;0.506724;0.505156;0.505203;0.506472;0.504339;0.500592;0.502329;0.504016;0.500083;0.496588;0.500770;0.497546;0.502330;0.497744;0.497944;0.495011;0.495154;0.496355;0.499507;0.496929;0.495161
0.540435;0.547019;0.542004;0.552945;0.552377;0.556555;0.561818;0.561805;0.565927;0.574961;0.576984;0.581282;0.579547;0.587128;0.592375;0.592460;0.597272;0.601797;0.602355;0.607648;0.615652;0.621545;0.623293;0.622268;0.631690;0.640040;0.639991;0.642221;0.646725;0.656440;0.652329;0.661530;0.659857;0.667814;0.674101;0.676715;0.672323;0.684741;0.683186;0.689448;0.691627;0.693762;0.698380;0.698139;0.701588;0.702714;0.706283;0.709319;0.717842;0.712672;0.715442;0.719770;0.720124;0.722656;0.720658;0.721032;0.727597;0.723743;0.732261;0.730387;0.732405;0.730209;0.730871;0.735253;0.736271;0.733667;0.736093;0.736365;0.735578;0.737168;0.740221;0.743787;0.739024;0.740425;0.741347;0.736758;0.737359;0.738555;0.733698;0.742705;0.736899;0.735211;0.736869;0.731986;0.735296;0.730149;0.732405;0.733021;0.730549;0.728243;0.723288;0.725537;0.724723;0.724567;0.718917;0.718795;0.716315;0.720140;0.716028;0.715074;0.710813;0.708259;0.714029;0.707353;0.709502;0.705934;0.700198;0.700581;0.699499;0.696955;0.696582;0.693105;0.696522;0.694793;0.691850;0.686997;0.685818;0.684101;0.680079;0.684144;0.680494;0.679589;0.673674;0.674989;0.671164;0.671536;0.670763;0.664948;0.665370;0.663534;0.665158;0.659792;0.656348;0.660072;0.656628;0.659083;0.651796;0.651406;0.650982;0.647527;0.645483;0.646905;0.636933;0.643207;0.636038;0.634089;0.632335;0.629179;0.630520;0.627954;0.628818;0.622343;0.622166;0.621287;0.622030;0.618725;0.615551;0.614654;0.613709;0.607360;0.602560;0.606268;0.604151;0.600913;0.598831;0.595066;0.589829;0.587351;0.589238;0.584352;0.581469;0.579474;0.580059;0.576607;0.571917;0.572102;0.565646;0.561150;0.564680;0.557451;0.558143;0.554352;0.552496;0.553468;0.551817;0.547990;0.545636;0.544723;0.538434;0.537379;0.535760;0.532714;0.532210;0.530238;0.527871;0.529570;0.527781;0.518988;0.522658;0.519156
