1100;1105;1110;1115;1120;1125;1130;1135;1140;1145;1150;1155;1160;1165;1170;1175;1180;1185;1190;1195;1200;1205;1210;1215;1220;1225;1230;1235;1240;1245;1250;1255;1260;1265;1270;1275;1280;1285;1290;1295;1301;1306;1311;1316;1321;1326;1331;1336;1341;1346;1351;1356;1361;1366;1371;1376;1381;1386;1391;1396;1401;1406;1411;1416;1421;1426;1431;1436;1441;1446;1451;1456;1461;1466;1471;1476;1481;1486;1491;1496;1502;1507;1512;1517;1522;1527;1532;1537;1542;1547;1552;1557;1562;1567;1572;1577;1582;1587;1592;1597;1602;1607;1612;1617;1622;1627;1632;1637;1642;1647;1652;1657;1662;1667;1672;1677;1682;1687;1692;1697;1703;1708;1713;1718;1723;1728;1733;1738;1743;1748;1753;1758;1763;1768;1773;1778;1783;1788;1793;1798;1803;1808;1813;1818;1823;1828;1833;1838;1843;1848;1853;1858;1863;1868;1873;1878;1883;1888;1893;1898;1904;1909;1914;1919;1924;1929;1934;1939;1944;1949;1954;1959;1964;1969;1974;1979;1984;1989;1994;1999;2004;2009;2014;2019;2024;2029;2034;2039;2044;2049;2054;2059;2064;2069;2074;2079;2084;2089;2094;2100
0.583676;0.593105;0.599367;0.607856;0.609927;0.619938;0.629679;0.633118;0.641279;0.651232;0.656009;0.662938;0.673920;0.678833;0.690781;0.697073;0.706022;0.705990;0.718915;0.726879;0.739036;0.742251;0.751712;0.761022;0.767935;0.778693;0.781827;0.785677;0.793105;0.792095;0.805564;0.806228;0.816437;0.816408;0.824937;0.832337;0.829330;0.833632;0.835731;0.838532;0.837174;0.840613;0.839788;0.842216;0.843414;0.838208;0.837995;0.832621;0.833422;0.835337;0.830406;0.823231;0.822673;0.814527;0.812007;0.807506;0.806482;0.798750;0.791302;0.785072;0.782801;0.773946;0.767755;0.765622;0.761157;0.752068;0.747820;0.737439;0.731527;0.731276;0.720408;0.715546;0.713116;0.702419;0.699407;0.690261;0.688375;0.683237;0.676779;0.667820;0.666516;0.660528;0.652079;0.650598;0.647480;0.640049;0.638069;0.633094;0.629280;0.623321;0.617859;0.614599;0.613651;0.608076;0.608320;0.604981;0.602199;0.600958;0.597905;0.589430;0.590553;0.589397;0.588662;0.587161;0.587641;0.578174;0.582136;0.580177;0.575903;0.573916;0.575276;0.574338;0.567297;0.576091;0.572481;0.576132;0.571641;0.570094;0.567245;0.571892;0.572180;0.571088;0.570982;0.570686;0.574791;0.571139;0.572760;0.568694;0.572497;0.569536;0.577524;0.576088;0.573876;0.573210;0.576237;0.581987;0.584322;0.577484;0.582706;0.583489;0.581112;0.587967;0.589090;0.587119;0.589367;0.586618;0.587978;0.589820;0.589507;0.587825;0.591202;0.592248;0.588202;0.591430;0.590400;0.589560;0.591307;0.592854;0.590225;0.588006;0.590892;0.588696;0.592358;0.589444;0.582949;0.584358;0.576465;0.583820;0.581756;0.578075;0.576444;0.581894;0.572896;0.575071;0.569864;0.568105;0.567963;0.566120;0.557033;0.562159;0.555927;0.553690;0.555176;0.552090;0.549091;0.546029;0.545546;0.543474;0.541136;0.538810;0.545419;0.538188;0.532017;0.534633;0.528643;0.528070;0.526696;0.525879;0.518534;0.520997
0.530908;0.536091;0.541860;0.546404;0.541600;0.545484;0.551983;0.556716;0.553825;0.559846;0.563939;0.562835;0.566505;0.568066;0.572979;0.574128;0.576514;0.583617;0.584156;0.590232;0.592051;0.596198;0.597899;0.596785;0.610066;0.605122;0.611642;0.612331;0.616764;0.611858;0.620722;0.623767;0.625814;0.628870;0.633044;0.630079;0.635708;0.634617;0.638443;0.642415;0.644116;0.642197;0.646592;0.642479;0.640094;0.644510;0.645436;0.647736;0.647635;0.643736;0.643949;0.648987;0.641322;0.640770;0.644545;0.643707;0.641743;0.640558;0.644465;0.634945;0.637244;0.639875;0.636950;0.635211;0.632243;0.628357;0.628982;0.625002;0.631791;0.625760;0.623261;0.626349;0.619922;0.618864;0.617237;0.618262;0.616748;0.613564;0.612919;0.611558;0.608994;0.609933;0.603578;0.605214;0.600479;0.597859;0.599691;0.594577;0.596146;0.596988;0.593480;0.592593;0.595002;0.592196;0.587034;0.589034;0.593705;0.588216;0.585474;0.585358;0.582168;0.588176;0.586657;0.585506;0.589503;0.589013;0.584560;0.588342;0.588199;0.591087;0.594708;0.595507;0.599464;0.602115;0.603448;0.605484;0.612542;0.611489;0.617428;0.619711;0.619406;0.625334;0.628756;0.633708;0.637891;0.646061;0.652608;0.658219;0.660808;0.668477;0.673966;0.678952;0.683924;0.691565;0.692446;0.703407;0.707833;0.709386;0.716152;0.732249;0.735332;0.735088;0.743029;0.751584;0.755274;0.760016;0.759784;0.768262;0.775766;0.781737;0.780519;0.785248;0.789272;0.791335;0.798391;0.792130;0.793708;0.795056;0.796889;0.793387;0.793809;0.789471;0.787100;0.788373;0.788093;0.789137;0.785006;0.780823;0.773316;0.771328;0.769744;0.761404;0.759525;0.753487;0.741356;0.738305;0.726136;0.721292;0.727037;0.708883;0.704390;0.697306;0.689745;0.682443;0.677491;0.673118;0.667533;0.651901;0.648889;0.637846;0.629379;0.623617;0.620730;0.614579;0.606086;0.598955;0.590935;0.587171;0.584649;0.575342
0.507204;0.498804;0.507499;0.508175;0.506440;0.505753;0.510323;0.509455;0.506568;0.511742;0.512732;0.511268;0.511358;0.516683;0.516115;0.517623;0.518148;0.519505;0.522106;0.526530;0.526222;0.529555;0.530445;0.531551;0.535673;0.543466;0.547932;0.548214;0.549836;0.552653;0.563286;0.566028;0.569611;0.573584;0.575870;0.583273;0.593205;0.598569;0.607549;0.609593;0.618791;0.619701;0.635401;0.639585;0.650374;0.654671;0.664134;0.674251;0.682372;0.695906;0.702736;0.713299;0.722336;0.727407;0.741517;0.745947;0.759937;0.766613;0.781081;0.790092;0.798505;0.812496;0.816238;0.827054;0.830639;0.844590;0.850284;0.858395;0.859587;0.874922;0.878602;0.886465;0.889000;0.892533;0.897539;0.900187;0.905597;0.907635;0.914339;0.910531;0.906556;0.907086;0.906781;0.913278;0.908029;0.901014;0.900465;0.902494;0.893663;0.890473;0.885005;0.880325;0.878909;0.865133;0.858059;0.852311;0.845835;0.840632;0.831091;0.821674;0.814576;0.812716;0.802833;0.791897;0.777226;0.775840;0.763222;0.754599;0.747785;0.739334;0.731103;0.719432;0.715030;0.704016;0.696138;0.696255;0.687574;0.677633;0.675862;0.667912;0.661370;0.651163;0.647216;0.643131;0.637926;0.631133;0.625031;0.624157;0.619230;0.614963;0.610457;0.612083;0.606437;0.598420;0.601792;0.598783;0.591359;0.594031;0.586978;0.589087;0.585550;0.582160;0.578501;0.582685;0.574265;0.574382;0.582291;0.575125;0.579865;0.573849;0.565856;0.567851;0.568766;0.569561;0.566748;0.565728;0.564014;0.559710;0.570766;0.566882;0.562522;0.558739;0.557393;0.557456;0.555822;0.558600;0.558633;0.550216;0.550762;0.551038;0.552069;0.544917;0.545198;0.546722;0.542267;0.542800;0.540033;0.540030;0.537287;0.538023;0.530591;0.527684;0.533221;0.531763;0.527381;0.527060;0.524945;0.525322;0.523661;0.520096;0.517186;0.516781;0.516126;0.516031;0.513950;0.517784;0.512991;0.507790;0.510069;0.510516
0.519616;0.526191;0.525232;0.531337;0.526424;0.530522;0.528586;0.530233;0.530994;0.533446;0.538466;0.541445;0.540315;0.544321;0.547197;0.554426;0.554714;0.555869;0.556370;0.560379;0.559809;0.564379;0.564083;0.563468;0.572086;0.573457;0.579746;0.573243;0.581894;0.586340;0.588785;0.583875;0.593165;0.591362;0.595229;0.597387;0.597214;0.601796;0.602303;0.604559;0.602253;0.605660;0.612605;0.611689;0.611530;0.615730;0.615188;0.618493;0.621846;0.619273;0.618889;0.618772;0.625063;0.627370;0.627536;0.628174;0.626910;0.631415;0.633639;0.630025;0.634180;0.629776;0.636190;0.638322;0.641403;0.636176;0.639299;0.636580;0.638458;0.645326;0.641030;0.641081;0.644460;0.644845;0.639424;0.643500;0.643470;0.644942;0.639742;0.643888;0.643776;0.646056;0.637453;0.646839;0.645283;0.640434;0.639289;0.642766;0.641126;0.640808;0.639464;0.643772;0.645442;0.637598;0.642393;0.635921;0.636791;0.639098;0.639136;0.643495;0.638463;0.645172;0.642054;0.642737;0.642554;0.641776;0.645421;0.640923;0.647538;0.647177;0.646640;0.649327;0.650359;0.653159;0.656085;0.655009;0.660866;0.660777;0.662497;0.665065;0.665887;0.670985;0.674240;0.677485;0.677824;0.681632;0.688859;0.694014;0.695907;0.701333;0.704434;0.706059;0.708191;0.714771;0.720766;0.723139;0.726134;0.730477;0.740809;0.740779;0.744041;0.747501;0.748536;0.757205;0.754861;0.760985;0.764429;0.764912;0.767098;0.768222;0.771340;0.778784;0.771731;0.772553;0.779351;0.774139;0.781106;0.778450;0.776066;0.774386;0.771519;0.774919;0.767150;0.769786;0.764265;0.763788;0.756220;0.752709;0.754401;0.743130;0.744056;0.732489;0.729023;0.723690;0.719697;0.715163;0.703080;0.703381;0.699431;0.690798;0.685690;0.679288;0.670993;0.666805;0.655447;0.654897;0.641716;0.638612;0.628774;0.622773;0.619244;0.614580;0.606397;0.604320;0.598917;0.593399;0.589349;0.581860;0.577766;0.571261
0.528584;0.533584;0.532996;0.538414;0.539009;0.543723;0.546869;0.545658;0.544935;0.551772;0.551515;0.559719;0.557550;0.563834;0.568048;0.569848;0.567033;0.576391;0.578354;0.581598;0.585966;0.591834;0.590111;0.590169;0.596228;0.600060;0.602811;0.608990;0.607711;0.607773;0.620323;0.618568;0.624461;0.625964;0.622498;0.627530;0.632163;0.636011;0.635170;0.642236;0.644649;0.647320;0.646580;0.648622;0.652733;0.654166;0.655988;0.656232;0.662188;0.665229;0.664488;0.663755;0.665160;0.672005;0.676242;0.678368;0.677909;0.679526;0.683381;0.683806;0.685572;0.683262;0.686802;0.687847;0.695753;0.697190;0.697065;0.698674;0.700971;0.699309;0.705511;0.705920;0.713003;0.706834;0.712987;0.712328;0.712938;0.720548;0.719318;0.727652;0.728461;0.731452;0.731654;0.735175;0.740482;0.743453;0.740199;0.744996;0.750879;0.747780;0.753733;0.756034;0.757422;0.763548;0.763445;0.767105;0.773200;0.777261;0.775117;0.780625;0.778390;0.780674;0.786698;0.786830;0.787781;0.790158;0.789394;0.798123;0.793276;0.793198;0.799437;0.793669;0.798891;0.802374;0.795326;0.795898;0.795045;0.796621;0.790984;0.792774;0.785747;0.785065;0.789701;0.780201;0.780258;0.778117;0.771231;0.767343;0.764893;0.762442;0.754611;0.745646;0.747816;0.738600;0.734477;0.729191;0.727849;0.722957;0.706963;0.707294;0.698401;0.692265;0.689526;0.679286;0.678877;0.670333;0.664321;0.657549;0.654225;0.653306;0.644424;0.637921;0.632643;0.625990;0.621120;0.616985;0.608417;0.608836;0.603706;0.598613;0.594127;0.587329;0.582975;0.579780;0.574475;0.576014;0.571389;0.566332;0.562932;0.556051;0.555854;0.553618;0.549024;0.548571;0.545285;0.539840;0.541926;0.541328;0.535613;0.536444;0.530972;0.534881;0.532324;0.527397;0.529235;0.525863;0.526976;0.523662;0.521167;0.519789;0.519037;0.514643;0.518875;0.514973;0.515943;0.516223;0.515765;0.512055;0.516133;0.513127
0.545457;0.553752;0.556418;0.558065;0.560339;0.564139;0.566894;0.569626;0.578721;0.581078;0.586319;0.586299;0.593031;0.596066;0.603925;0.609015;0.615130;0.611217;0.622538;0.624591;0.629738;0.643147;0.642130;0.646683;0.644165;0.650210;0.650892;0.655625;0.663179;0.668949;0.670162;0.672843;0.679074;0.679426;0.685512;0.687066;0.685443;0.689769;0.690125;0.697649;0.697276;0.692756;0.698367;0.699215;0.700223;0.706035;0.702341;0.699399;0.703538;0.704151;0.701772;0.701037;0.702105;0.702270;0.701190;0.703961;0.699132;0.700578;0.696168;0.694851;0.694908;0.690812;0.686515;0.684274;0.680862;0.683410;0.681743;0.678244;0.679367;0.674085;0.672077;0.668634;0.661086;0.659353;0.660712;0.652031;0.652341;0.652150;0.652137;0.647142;0.646904;0.640535;0.642061;0.635323;0.633794;0.633866;0.624253;0.626238;0.625454;0.623509;0.618096;0.617267;0.615512;0.615693;0.612782;0.609168;0.605640;0.602706;0.605574;0.598050;0.599594;0.599877;0.594742;0.595161;0.593145;0.591480;0.589045;0.588637;0.586227;0.589885;0.586316;0.587934;0.590427;0.586644;0.591321;0.585260;0.589494;0.591651;0.597511;0.599168;0.602876;0.601920;0.603157;0.603264;0.610850;0.614589;0.616561;0.622259;0.623888;0.625392;0.632457;0.632856;0.632679;0.644103;0.649286;0.644580;0.650586;0.654358;0.658839;0.668084;0.677159;0.675067;0.679722;0.686829;0.687923;0.689247;0.692901;0.695275;0.700133;0.704004;0.702531;0.712223;0.708955;0.708866;0.709367;0.712171;0.712537;0.715192;0.715056;0.711339;0.710600;0.717265;0.714869;0.705701;0.712822;0.706927;0.708331;0.702595;0.699979;0.696315;0.696136;0.689057;0.685547;0.678421;0.671923;0.668512;0.667300;0.663838;0.654687;0.650297;0.647164;0.640120;0.633281;0.629367;0.627085;0.623558;0.614683;0.608707;0.601520;0.598557;0.588500;0.592163;0.582252;0.577244;0.573368;0.566990;0.563682;0.559547;0.558249;0.552017
0.511265;0.516817;0.520487;0.512734;0.512623;0.518285;0.518902;0.522413;0.520884;0.522232;0.525761;0.520256;0.524517;0.528352;0.529457;0.530115;0.536120;0.533242;0.537296;0.534806;0.542416;0.544471;0.545150;0.544536;0.549723;0.554553;0.554320;0.558581;0.559539;0.564260;0.562998;0.571108;0.573211;0.571800;0.581638;0.580625;0.587336;0.592675;0.598568;0.601927;0.603097;0.604910;0.612774;0.615543;0.617349;0.624294;0.624744;0.634442;0.637055;0.646477;0.648416;0.656903;0.656291;0.661299;0.669219;0.675323;0.680414;0.682880;0.690690;0.699356;0.699447;0.704386;0.710528;0.715145;0.723738;0.725742;0.727045;0.727849;0.735910;0.742352;0.745771;0.750517;0.747954;0.751717;0.756658;0.762539;0.763359;0.767788;0.768577;0.771270;0.768514;0.772689;0.768316;0.771636;0.775690;0.771321;0.772182;0.772615;0.771256;0.767597;0.770795;0.769079;0.762783;0.765940;0.757315;0.764279;0.767524;0.756264;0.755263;0.754885;0.749791;0.746711;0.746520;0.744827;0.745837;0.740387;0.736285;0.733233;0.727297;0.725708;0.725063;0.722402;0.722107;0.718066;0.711925;0.709799;0.712905;0.710670;0.707409;0.709648;0.705685;0.702403;0.699703;0.700783;0.702459;0.693161;0.692572;0.695043;0.694822;0.687777;0.686638;0.689556;0.679424;0.686702;0.683252;0.685188;0.679881;0.685322;0.677857;0.678278;0.678677;0.673227;0.676288;0.679035;0.673573;0.676275;0.670360;0.669541;0.671961;0.669808;0.665181;0.669126;0.666742;0.665983;0.660063;0.658282;0.656609;0.654679;0.655805;0.647941;0.646005;0.647575;0.646056;0.644477;0.639239;0.635105;0.635983;0.629178;0.625994;0.623162;0.624061;0.617477;0.619406;0.608586;0.612745;0.601737;0.601208;0.596752;0.595583;0.590339;0.580711;0.582516;0.582317;0.578990;0.572335;0.572863;0.562089;0.561864;0.564699;0.557259;0.554135;0.548808;0.549474;0.546130;0.546277;0.538601;0.539665;0.531213;0.532097;0.528806
0.506381;0.504671;0.504149;0.506209;0.500224;0.503648;0.504292;0.509454;0.502051;0.505159;0.508881;0.509821;0.503229;0.509903;0.512268;0.510041;0.512279;0.507357;0.509771;0.508981;0.509808;0.511020;0.512581;0.509325;0.508402;0.509698;0.511382;0.513429;0.513020;0.517720;0.519019;0.513568;0.513869;0.512799;0.513238;0.516275;0.522061;0.517714;0.522607;0.520729;0.521840;0.520921;0.521105;0.523610;0.520409;0.521384;0.531087;0.525602;0.531673;0.532657;0.532595;0.532379;0.529876;0.537280;0.537044;0.541086;0.544628;0.541934;0.544254;0.542745;0.553458;0.551098;0.553549;0.565041;0.562887;0.559648;0.565784;0.572435;0.580572;0.580923;0.582968;0.590515;0.591719;0.605489;0.612304;0.613534;0.619236;0.626097;0.634805;0.643825;0.646475;0.658654;0.659195;0.665776;0.680833;0.684073;0.696692;0.699851;0.713134;0.718900;0.730519;0.738656;0.750047;0.750725;0.762890;0.774585;0.777396;0.799694;0.801955;0.810194;0.822802;0.831172;0.838046;0.844740;0.856045;0.863846;0.874306;0.875209;0.885222;0.897379;0.897643;0.909046;0.903841;0.917493;0.917434;0.918501;0.925147;0.923242;0.929787;0.932438;0.934098;0.926905;0.929670;0.925126;0.921931;0.921337;0.918457;0.909371;0.912493;0.907649;0.904950;0.892805;0.889398;0.886280;0.874733;0.869709;0.861361;0.856364;0.846062;0.834964;0.828366;0.816640;0.811128;0.802140;0.793728;0.782236;0.780626;0.764753;0.754482;0.750028;0.741107;0.733015;0.722413;0.717321;0.705511;0.698964;0.693285;0.684217;0.669017;0.665271;0.656621;0.655476;0.648453;0.638198;0.628257;0.627105;0.622827;0.617872;0.608166;0.601334;0.598223;0.594015;0.586609;0.583942;0.580319;0.576153;0.573715;0.569259;0.563151;0.560632;0.557921;0.555936;0.549836;0.544017;0.540536;0.539662;0.538543;0.536798;0.536235;0.532927;0.532157;0.526183;0.528813;0.525893;0.522539;0.522953;0.520651;0.516676;0.513773;0.517550
0.503890;0.508182;0.507492;0.507827;0.506719;0.504490;0.509165;0.505788;0.509792;0.503222;0.508871;0.510426;0.513892;0.509641;0.515030;0.515784;0.512787;0.517458;0.517864;0.517956;0.514994;0.514806;0.516338;0.522233;0.518447;0.516823;0.517204;0.517938;0.521110;0.523046;0.522510;0.527415;0.527917;0.528378;0.531260;0.528019;0.530736;0.534645;0.531949;0.531872;0.533564;0.539421;0.540000;0.541037;0.539488;0.545847;0.543215;0.547469;0.551999;0.546082;0.552542;0.552454;0.553208;0.553411;0.557594;0.560842;0.562176;0.559114;0.561037;0.567714;0.564293;0.564011;0.568104;0.569712;0.568031;0.568850;0.573029;0.574637;0.574728;0.577418;0.576823;0.578767;0.581804;0.580447;0.581239;0.584332;0.585357;0.583505;0.585804;0.588750;0.587012;0.590690;0.588406;0.587688;0.590198;0.590486;0.590988;0.590043;0.590920;0.595372;0.593861;0.599281;0.597327;0.594169;0.598225;0.598556;0.597083;0.600963;0.601151;0.600088;0.605838;0.606965;0.608251;0.608298;0.617023;0.620291;0.615082;0.616714;0.622458;0.620624;0.627692;0.634901;0.640862;0.638729;0.646512;0.646446;0.651354;0.656577;0.666935;0.662032;0.668417;0.681724;0.687824;0.691287;0.693714;0.707571;0.711580;0.716254;0.728930;0.730605;0.737364;0.744794;0.753546;0.767408;0.770781;0.779392;0.787739;0.799124;0.798719;0.805580;0.817619;0.823285;0.832533;0.841618;0.840838;0.852298;0.861325;0.862738;0.866332;0.874047;0.880854;0.884740;0.889154;0.885460;0.891172;0.889950;0.895114;0.894853;0.893958;0.892945;0.896026;0.889871;0.893115;0.889519;0.881662;0.882084;0.876060;0.870535;0.866343;0.862177;0.852089;0.850875;0.840956;0.835515;0.823856;0.824076;0.809616;0.799176;0.789022;0.780730;0.775749;0.766514;0.753248;0.746447;0.738277;0.727798;0.713407;0.706170;0.704800;0.690430;0.681311;0.673304;0.664086;0.655236;0.650877;0.639948;0.632680;0.628398;0.620205;0.610849
0.516632;0.514641;0.512218;0.512263;0.514441;0.520510;0.520575;0.521809;0.524555;0.524354;0.522829;0.529285;0.523488;0.525263;0.530014;0.531300;0.535023;0.535971;0.536832;0.538641;0.540229;0.541443;0.545565;0.543646;0.549453;0.555966;0.559325;0.556045;0.561156;0.559777;0.568361;0.574787;0.571430;0.575909;0.575781;0.580980;0.584162;0.587755;0.591227;0.596763;0.597023;0.607625;0.606224;0.612123;0.617946;0.619513;0.627036;0.628845;0.628751;0.638053;0.645349;0.654931;0.658438;0.661801;0.667604;0.671573;0.673834;0.677191;0.683608;0.690817;0.695227;0.704912;0.701947;0.710501;0.719160;0.719947;0.727320;0.733416;0.739946;0.740974;0.746082;0.750187;0.755409;0.758246;0.767256;0.767742;0.769235;0.775552;0.783055;0.783545;0.788266;0.792862;0.795940;0.802099;0.801810;0.800021;0.803983;0.806653;0.807772;0.809962;0.812318;0.815919;0.814126;0.818039;0.818240;0.819653;0.817972;0.818417;0.822131;0.824675;0.821017;0.815596;0.821804;0.821028;0.819801;0.819438;0.817448;0.819917;0.816630;0.819044;0.814735;0.811042;0.806464;0.805292;0.807650;0.804723;0.802235;0.801360;0.798691;0.792181;0.789574;0.784688;0.780659;0.776918;0.772579;0.770277;0.763228;0.761007;0.753848;0.748859;0.744965;0.738817;0.737921;0.729137;0.725256;0.717693;0.705810;0.705959;0.698228;0.696050;0.689592;0.687283;0.681333;0.673656;0.664760;0.659887;0.647628;0.647977;0.646699;0.636434;0.627455;0.625530;0.622982;0.617210;0.612173;0.603232;0.603987;0.597031;0.589107;0.588259;0.588693;0.579567;0.576214;0.574735;0.567524;0.560745;0.564369;0.562510;0.550442;0.554201;0.550376;0.546282;0.544579;0.548272;0.535847;0.538574;0.531596;0.536731;0.531384;0.529303;0.530947;0.524934;0.522390;0.523632;0.518936;0.520241;0.520831;0.520796;0.523820;0.511289;0.514213;0.514520;0.515876;0.512289;0.518063;0.512964;0.512269;0.508177;0.506998;0.504114
0.563428;0.566883;0.573023;0.579847;0.578401;0.580923;0.589079;0.593206;0.596070;0.596236;0.606575;0.609157;0.615710;0.620810;0.627493;0.634594;0.641178;0.643171;0.651495;0.656353;0.661293;0.665851;0.670301;0.677362;0.675918;0.683044;0.686782;0.692014;0.689615;0.698294;0.697783;0.703724;0.705399;0.713410;0.713846;0.715311;0.717626;0.721692;0.723566;0.724684;0.722381;0.719534;0.716443;0.715897;0.717974;0.718143;0.711904;0.708639;0.710381;0.707519;0.706030;0.701169;0.693691;0.693808;0.694253;0.685954;0.680094;0.679160;0.674461;0.670652;0.665253;0.661135;0.652600;0.650209;0.641708;0.641253;0.634787;0.630019;0.631838;0.625942;0.623294;0.613920;0.613517;0.607724;0.606319;0.605206;0.604749;0.597360;0.591599;0.589662;0.589995;0.590401;0.582541;0.587291;0.584067;0.585169;0.581782;0.583873;0.582798;0.581662;0.582491;0.579068;0.581938;0.587842;0.584152;0.583076;0.586845;0.590250;0.595016;0.592179;0.593534;0.597665;0.596724;0.600271;0.607201;0.603175;0.610963;0.610790;0.617581;0.617161;0.617350;0.626164;0.629962;0.627479;0.631912;0.637193;0.636102;0.641498;0.641468;0.641933;0.649912;0.649428;0.653010;0.656867;0.662456;0.658163;0.661822;0.669429;0.670045;0.674492;0.673268;0.671709;0.681234;0.683431;0.685721;0.684686;0.687792;0.688108;0.693456;0.695157;0.697462;0.697593;0.696309;0.701674;0.703324;0.701314;0.702830;0.703355;0.701202;0.707679;0.703517;0.702796;0.704152;0.703252;0.701487;0.702873;0.703016;0.693975;0.698364;0.696935;0.694407;0.690747;0.693214;0.688901;0.683803;0.679190;0.684599;0.679502;0.670933;0.666973;0.666115;0.659573;0.659780;0.655085;0.648801;0.644247;0.642316;0.638992;0.630562;0.626409;0.625500;0.616622;0.615380;0.606153;0.599333;0.600859;0.592205;0.588355;0.580049;0.581675;0.573902;0.574617;0.568322;0.564189;0.559505;0.554601;0.549698;0.552656;0.545431;0.540454
0.501184;0.500958;0.507493;0.504407;0.505974;0.508745;0.508715;0.503124;0.502668;0.505845;0.510463;0.509076;0.508679;0.505320;0.511529;0.511591;0.511090;0.515390;0.510874;0.513434;0.517322;0.513540;0.515966;0.519502;0.515158;0.521731;0.516696;0.521626;0.523738;0.518351;0.521587;0.523231;0.523448;0.522980;0.530033;0.531516;0.530111;0.530652;0.533094;0.532613;0.531741;0.533227;0.541133;0.534936;0.538617;0.542910;0.543648;0.545558;0.545578;0.544293;0.548039;0.547186;0.555448;0.553719;0.559041;0.559245;0.560022;0.562452;0.571219;0.570360;0.570159;0.569625;0.580154;0.575833;0.586282;0.590765;0.590359;0.594304;0.597798;0.599587;0.604455;0.612078;0.612835;0.617982;0.618492;0.622531;0.629862;0.634073;0.640564;0.646249;0.653646;0.656269;0.662544;0.666883;0.673817;0.680727;0.687390;0.690762;0.693190;0.705342;0.712476;0.717595;0.727436;0.731693;0.732890;0.747471;0.747780;0.756934;0.765085;0.769735;0.770653;0.780786;0.789740;0.795778;0.799604;0.803049;0.810150;0.818411;0.822150;0.828309;0.828485;0.832342;0.841229;0.844009;0.845768;0.847503;0.848466;0.855654;0.856564;0.857094;0.859763;0.857276;0.854329;0.856113;0.857335;0.853106;0.853841;0.854126;0.851940;0.848713;0.847473;0.846445;0.841004;0.834485;0.834062;0.826761;0.824527;0.820122;0.815864;0.809912;0.811620;0.802225;0.797963;0.790090;0.789660;0.781039;0.775499;0.771387;0.766323;0.760687;0.751646;0.748599;0.742801;0.738188;0.733248;0.728730;0.716698;0.719070;0.708821;0.707531;0.696630;0.692798;0.690340;0.682834;0.681684;0.666639;0.663815;0.662928;0.652924;0.647695;0.642165;0.641009;0.634486;0.629662;0.628159;0.620480;0.619842;0.610973;0.605337;0.599565;0.594189;0.596527;0.591611;0.589388;0.579594;0.578919;0.572513;0.568812;0.564281;0.569020;0.563915;0.554448;0.555028;0.546733;0.547722;0.545110;0.538146;0.540407;0.535326;0.534330
0.526352;0.524971;0.525730;0.529158;0.531342;0.532157;0.538621;0.533861;0.536336;0.539845;0.545358;0.544713;0.547980;0.551254;0.557264;0.555595;0.558204;0.560461;0.560464;0.566697;0.564041;0.568366;0.571404;0.574528;0.579713;0.570409;0.583181;0.587131;0.582259;0.584615;0.593019;0.582800;0.588345;0.593579;0.598134;0.594564;0.597868;0.601450;0.602640;0.600349;0.599445;0.608779;0.608410;0.604726;0.605239;0.601979;0.603028;0.609888;0.608150;0.608352;0.610781;0.611215;0.612981;0.610153;0.605639;0.609089;0.616054;0.613664;0.612255;0.611379;0.613843;0.609433;0.615113;0.613175;0.612412;0.611375;0.615082;0.614086;0.616614;0.615122;0.617386;0.618586;0.620880;0.624453;0.624729;0.624136;0.624974;0.631551;0.628454;0.634013;0.634865;0.637757;0.642232;0.647796;0.651030;0.648408;0.657521;0.659641;0.663907;0.668105;0.673355;0.669677;0.678928;0.679633;0.687028;0.692277;0.697771;0.701998;0.700885;0.710094;0.706323;0.716173;0.717666;0.721457;0.726967;0.730569;0.737903;0.738933;0.744417;0.749077;0.752308;0.756561;0.757740;0.761883;0.757897;0.767135;0.765868;0.771192;0.773171;0.770312;0.773383;0.776906;0.776502;0.778240;0.773879;0.774147;0.775166;0.778955;0.780754;0.779795;0.775226;0.776514;0.772995;0.775891;0.770312;0.767086;0.770667;0.767992;0.766577;0.762279;0.762776;0.758562;0.756529;0.753535;0.750321;0.748711;0.740631;0.741003;0.738858;0.732968;0.730470;0.726303;0.722875;0.717146;0.716115;0.713499;0.705414;0.704177;0.700529;0.699281;0.696216;0.686298;0.684367;0.678221;0.673063;0.670837;0.666187;0.662064;0.657541;0.651979;0.645128;0.644270;0.639653;0.632797;0.632534;0.631464;0.618952;0.614119;0.612311;0.610793;0.603984;0.600562;0.594551;0.587928;0.583392;0.583470;0.575106;0.572005;0.565380;0.564449;0.559333;0.559377;0.552767;0.555896;0.548859;0.543411;0.541748;0.538730;0.538846;0.538808
0.502566;0.506973;0.506208;0.505475;0.508138;0.510090;0.511717;0.508772;0.516135;0.515146;0.519615;0.517410;0.514523;0.515102;0.518296;0.520557;0.523420;0.522520;0.528604;0.525327;0.531481;0.533677;0.537596;0.537234;0.537677;0.546360;0.544128;0.555017;0.555413;0.560521;0.562408;0.576252;0.574657;0.583402;0.587823;0.592967;0.599294;0.606573;0.610301;0.620024;0.628129;0.637033;0.646257;0.646968;0.663366;0.662296;0.679316;0.686944;0.695268;0.704259;0.718889;0.723418;0.735663;0.747741;0.753446;0.765120;0.770607;0.782828;0.792537;0.803038;0.814646;0.829193;0.833849;0.846762;0.852396;0.860098;0.864824;0.881195;0.884651;0.890681;0.899129;0.905610;0.911564;0.912966;0.923480;0.925015;0.931763;0.932831;0.930594;0.938327;0.937502;0.938297;0.935218;0.934303;0.936741;0.930709;0.925983;0.926927;0.924722;0.914956;0.913743;0.913218;0.897551;0.891233;0.888704;0.881148;0.874799;0.870036;0.856689;0.850081;0.845051;0.836654;0.828104;0.816403;0.805565;0.801362;0.795177;0.783531;0.777502;0.761755;0.752870;0.747465;0.738374;0.730449;0.712701;0.712488;0.704829;0.694189;0.690732;0.684106;0.679322;0.667468;0.658310;0.651969;0.647049;0.640675;0.632088;0.632850;0.623886;0.620358;0.614862;0.611994;0.605864;0.598708;0.589291;0.590546;0.589684;0.583557;0.578292;0.577282;0.569986;0.564423;0.561549;0.556488;0.559052;0.558334;0.553284;0.554056;0.546272;0.547909;0.542427;0.544268;0.544084;0.539234;0.540137;0.535658;0.533672;0.538345;0.527593;0.524749;0.527591;0.529083;0.524178;0.524984;0.519832;0.517067;0.517720;0.519030;0.517468;0.515480;0.514312;0.512724;0.512885;0.517364;0.509289;0.510324;0.509219;0.504448;0.505400;0.503346;0.505270;0.501631;0.506071;0.503363;0.506884;0.500519;0.503538;0.504288;0.506071;0.497908;0.500872;0.503035;0.501397;0.503459;0.499023;0.499628;0.501059;0.498922;0.500510;0.493336
0.513532;0.517541;0.515072;0.517526;0.519509;0.519759;0.524371;0.522574;0.520284;0.523275;0.529707;0.524517;0.529565;0.531420;0.529327;0.531617;0.538715;0.538665;0.538654;0.539725;0.539739;0.543332;0.548591;0.543614;0.551592;0.553849;0.554306;0.558762;0.554691;0.560719;0.565152;0.567364;0.567746;0.570893;0.572881;0.579265;0.579577;0.572643;0.580356;0.580655;0.589461;0.585466;0.590892;0.595397;0.591736;0.596267;0.601705;0.603025;0.600790;0.605420;0.610143;0.611905;0.620596;0.620147;0.617536;0.622120;0.627883;0.627598;0.627079;0.636476;0.634138;0.641225;0.643669;0.644065;0.645001;0.648642;0.646658;0.650506;0.655069;0.656146;0.660018;0.664269;0.661745;0.664394;0.663357;0.665393;0.668018;0.669239;0.673844;0.671019;0.667330;0.671049;0.674807;0.678409;0.677503;0.681174;0.681386;0.684349;0.682148;0.683395;0.683188;0.679893;0.687922;0.684645;0.688092;0.685582;0.687085;0.688584;0.688988;0.687107;0.692474;0.691424;0.695602;0.688874;0.693496;0.695918;0.696182;0.695784;0.696379;0.696481;0.700039;0.697065;0.698711;0.696490;0.694818;0.697424;0.701638;0.708137;0.704016;0.705759;0.705065;0.707755;0.709832;0.712338;0.716389;0.711447;0.716994;0.717907;0.719236;0.722179;0.718659;0.720745;0.724453;0.728049;0.728269;0.734055;0.732899;0.730280;0.732455;0.735763;0.733603;0.733003;0.735946;0.741277;0.739267;0.744174;0.746894;0.740111;0.740584;0.744007;0.743648;0.738376;0.743308;0.747083;0.742343;0.743203;0.738405;0.735848;0.735585;0.732638;0.733872;0.734050;0.719892;0.725448;0.717178;0.714383;0.711024;0.706598;0.705849;0.698896;0.697503;0.691074;0.688265;0.679752;0.675644;0.668663;0.668210;0.660693;0.657623;0.652893;0.646344;0.637606;0.634284;0.627033;0.619931;0.616266;0.612746;0.608041;0.599991;0.593783;0.590275;0.584013;0.585385;0.574050;0.572360;0.564530;0.560277;0.559578;0.553599;0.553621
0.573921;0.580632;0.581597;0.588693;0.591625;0.605401;0.609546;0.614844;0.616954;0.623935;0.632441;0.641188;0.643715;0.651393;0.663504;0.669375;0.671962;0.680686;0.686709;0.698022;0.701390;0.713262;0.719991;0.722243;0.731344;0.736457;0.742131;0.751616;0.756007;0.758566;0.769592;0.770102;0.782246;0.782147;0.785980;0.790906;0.796379;0.798642;0.804368;0.808181;0.812194;0.808919;0.813056;0.814497;0.816047;0.812562;0.818431;0.818793;0.818856;0.819596;0.812966;0.821550;0.816738;0.816204;0.811692;0.811566;0.810509;0.807560;0.806105;0.805963;0.799434;0.797144;0.798892;0.796164;0.788265;0.790257;0.785229;0.780486;0.780649;0.775651;0.768880;0.763929;0.763657;0.760681;0.755839;0.752530;0.746643;0.740766;0.741185;0.729185;0.732708;0.727168;0.721996;0.714384;0.712094;0.706161;0.702074;0.702996;0.697809;0.694511;0.692600;0.688915;0.682190;0.677951;0.675467;0.670036;0.669230;0.664211;0.659017;0.647725;0.650990;0.648116;0.643043;0.639087;0.637772;0.630528;0.631237;0.629578;0.624572;0.619794;0.614393;0.614367;0.612484;0.607193;0.610649;0.604239;0.597561;0.593868;0.595935;0.595743;0.592209;0.592161;0.587156;0.586104;0.588026;0.587507;0.584405;0.579429;0.577836;0.575583;0.578458;0.574820;0.573256;0.573703;0.572904;0.568867;0.570504;0.572342;0.569768;0.569536;0.564539;0.571655;0.567851;0.566766;0.564971;0.564689;0.566053;0.564627;0.563358;0.563790;0.566991;0.562735;0.561858;0.560652;0.560668;0.558279;0.560638;0.558667;0.557097;0.554447;0.560736;0.556032;0.554142;0.552727;0.552360;0.549275;0.551277;0.547543;0.549084;0.549410;0.547099;0.541210;0.545349;0.540255;0.542135;0.540260;0.537939;0.533058;0.538580;0.538117;0.534121;0.533291;0.533271;0.529691;0.529297;0.526017;0.526765;0.519748;0.524609;0.520327;0.519472;0.517842;0.516880;0.514543;0.513185;0.514475;0.520097;0.515302;0.511979;0.516842
0.563234;0.569575;0.575518;0.576937;0.584178;0.583899;0.593742;0.596378;0.602554;0.605513;0.617180;0.621848;0.626834;0.635063;0.641150;0.644962;0.647259;0.657370;0.666142;0.670756;0.675407;0.682192;0.687452;0.698608;0.703704;0.709397;0.717994;0.720105;0.723692;0.737000;0.741426;0.748807;0.753862;0.754215;0.764363;0.764829;0.770998;0.774734;0.785662;0.786256;0.788930;0.797873;0.803240;0.795671;0.807719;0.812591;0.813237;0.817320;0.821579;0.821665;0.828197;0.829644;0.829560;0.832241;0.831193;0.833068;0.837216;0.840242;0.839710;0.841819;0.844373;0.838604;0.842588;0.838081;0.841445;0.842207;0.837478;0.837263;0.839663;0.838085;0.837178;0.836071;0.834204;0.826932;0.832543;0.828617;0.827281;0.824701;0.816102;0.819901;0.811602;0.808333;0.805727;0.802470;0.800124;0.794307;0.789217;0.783344;0.776008;0.775121;0.767141;0.764703;0.761806;0.752415;0.748746;0.744796;0.738248;0.731518;0.727396;0.720078;0.711220;0.703655;0.701496;0.694356;0.690355;0.678071;0.677948;0.669085;0.663689;0.657892;0.651743;0.643554;0.638131;0.637892;0.632915;0.627262;0.621152;0.616927;0.614479;0.604388;0.602148;0.597611;0.596364;0.591037;0.581129;0.575830;0.579273;0.572330;0.563616;0.566926;0.566474;0.561141;0.562256;0.556283;0.556806;0.550413;0.550933;0.547466;0.546197;0.542970;0.540681;0.539095;0.531994;0.533327;0.531608;0.528400;0.526790;0.528860;0.528574;0.524591;0.524834;0.519726;0.523977;0.514507;0.517121;0.518692;0.511524;0.513152;0.516765;0.517967;0.513355;0.509032;0.511339;0.506853;0.509322;0.508818;0.508775;0.507570;0.508339;0.505095;0.510749;0.508002;0.505965;0.503028;0.505309;0.502277;0.508680;0.505607;0.504216;0.504057;0.502024;0.503720;0.503097;0.503063;0.500942;0.502736;0.505587;0.502739;0.505121;0.504576;0.504884;0.499647;0.500968;0.501058;0.507456;0.505384;0.506046;0.504671;0.503922;0.500603
0.516894;0.514832;0.517917;0.520738;0.518905;0.524428;0.528635;0.528147;0.533131;0.528748;0.535586;0.538191;0.540449;0.543572;0.542572;0.543093;0.545935;0.551956;0.555201;0.557015;0.558092;0.558735;0.566135;0.570995;0.572624;0.575430;0.581759;0.580658;0.583402;0.593474;0.585821;0.596617;0.603063;0.608745;0.611007;0.621021;0.620967;0.626599;0.632602;0.633281;0.642461;0.651538;0.654183;0.659963;0.663339;0.671799;0.676921;0.685185;0.693440;0.695136;0.707715;0.709171;0.712094;0.724038;0.726094;0.742258;0.742837;0.751959;0.756053;0.761411;0.771082;0.775990;0.779642;0.784811;0.794245;0.802247;0.803755;0.810030;0.813889;0.820051;0.816856;0.825968;0.829430;0.832565;0.835247;0.837795;0.845182;0.840235;0.845916;0.845954;0.852338;0.843333;0.844510;0.850521;0.843207;0.846007;0.839183;0.842661;0.838234;0.837583;0.837993;0.829192;0.830159;0.826676;0.819960;0.816550;0.815026;0.807900;0.805883;0.798603;0.797733;0.787584;0.787424;0.779542;0.774423;0.769336;0.761651;0.758872;0.755742;0.748219;0.741982;0.734905;0.733605;0.724527;0.720419;0.714673;0.713513;0.709779;0.701866;0.693874;0.692295;0.685234;0.682026;0.681427;0.672756;0.666086;0.666849;0.659292;0.658192;0.655203;0.650201;0.645420;0.647413;0.640380;0.635915;0.634501;0.629517;0.624099;0.622593;0.619527;0.617474;0.617790;0.611795;0.603901;0.610415;0.603992;0.606683;0.596440;0.595203;0.595222;0.592034;0.591642;0.585918;0.588264;0.586017;0.578735;0.576682;0.569367;0.570713;0.569205;0.569102;0.569286;0.564839;0.567437;0.561009;0.559444;0.560424;0.560325;0.551865;0.552353;0.554835;0.550485;0.547831;0.550551;0.541492;0.540684;0.545353;0.539423;0.535574;0.534811;0.535505;0.536615;0.531539;0.530062;0.528405;0.528278;0.526067;0.531768;0.525308;0.523391;0.521160;0.519668;0.518428;0.520628;0.517390;0.515794;0.515373;0.514897;0.514334;0.512946
0.550273;0.553565;0.557857;0.562857;0.563625;0.570716;0.574011;0.576161;0.583172;0.584957;0.591705;0.597770;0.599122;0.609690;0.608828;0.613607;0.623530;0.625848;0.628293;0.637860;0.641585;0.646541;0.654955;0.663629;0.661748;0.665480;0.671295;0.677103;0.682968;0.691034;0.690678;0.699940;0.709015;0.709802;0.712293;0.720833;0.720096;0.723551;0.727869;0.737143;0.737116;0.747938;0.747762;0.752167;0.752607;0.756582;0.762414;0.761005;0.764318;0.768133;0.770160;0.772673;0.775088;0.771990;0.775417;0.776817;0.776569;0.785048;0.781997;0.783703;0.785841;0.784935;0.789019;0.786754;0.784420;0.787505;0.784141;0.791406;0.786206;0.785262;0.785734;0.783947;0.779151;0.781754;0.778609;0.781080;0.775212;0.769094;0.770333;0.771482;0.764398;0.758624;0.757988;0.745966;0.744322;0.747366;0.741815;0.737029;0.729344;0.730725;0.724793;0.718385;0.714509;0.708161;0.699879;0.696605;0.687377;0.687481;0.679189;0.675482;0.672938;0.670707;0.660604;0.648650;0.649457;0.645895;0.634236;0.632998;0.629656;0.625707;0.618808;0.618676;0.610776;0.605456;0.606146;0.599174;0.600758;0.596085;0.593403;0.591305;0.589832;0.587104;0.588657;0.583404;0.580644;0.579122;0.582901;0.579742;0.581781;0.580505;0.578306;0.580784;0.581017;0.582124;0.584390;0.584524;0.582851;0.583946;0.584539;0.587361;0.590050;0.587813;0.591985;0.594911;0.592620;0.598494;0.597567;0.596970;0.601286;0.599495;0.601535;0.603069;0.604573;0.600242;0.605334;0.607141;0.601365;0.608357;0.608876;0.607765;0.606108;0.604716;0.601811;0.608485;0.599409;0.603756;0.606288;0.599110;0.597259;0.598284;0.595924;0.596141;0.591767;0.591799;0.589290;0.584331;0.579432;0.583651;0.576023;0.575550;0.569202;0.567709;0.569978;0.565743;0.561063;0.558481;0.553707;0.557397;0.554338;0.551639;0.546016;0.542908;0.546559;0.539507;0.531645;0.534735;0.531704;0.534184;0.530493;0.530830
0.511825;0.513202;0.515896;0.521334;0.511747;0.513994;0.520414;0.518626;0.521234;0.516078;0.521543;0.523315;0.526050;0.526958;0.527417;0.526952;0.531136;0.532858;0.535855;0.535778;0.540228;0.543753;0.541777;0.550490;0.546529;0.548130;0.546370;0.550771;0.556247;0.559802;0.564587;0.560542;0.564286;0.569453;0.574948;0.570692;0.574645;0.576016;0.585172;0.587933;0.589899;0.591248;0.597371;0.599218;0.601255;0.606656;0.610880;0.612857;0.616575;0.619892;0.623147;0.626518;0.633912;0.638598;0.641561;0.645102;0.642915;0.653144;0.653812;0.660138;0.666319;0.669891;0.672975;0.678766;0.680954;0.686658;0.692544;0.690446;0.698624;0.704295;0.710566;0.709273;0.708045;0.715460;0.724484;0.724077;0.724704;0.734154;0.735299;0.737095;0.740978;0.744788;0.745349;0.749367;0.755934;0.752794;0.760960;0.768407;0.763402;0.771640;0.770749;0.769443;0.775262;0.773312;0.781376;0.781001;0.781787;0.783027;0.789264;0.786850;0.786289;0.785501;0.790306;0.786318;0.792576;0.793568;0.794591;0.793502;0.791710;0.792990;0.789610;0.789003;0.790303;0.789588;0.794783;0.794010;0.785217;0.782636;0.781892;0.789950;0.779781;0.783370;0.776920;0.778085;0.773750;0.773179;0.763447;0.761362;0.758477;0.759762;0.751483;0.749062;0.743402;0.739102;0.733049;0.726044;0.725660;0.721497;0.712746;0.708605;0.706489;0.704889;0.698544;0.693878;0.681023;0.682553;0.672667;0.676035;0.669771;0.667323;0.657450;0.651520;0.651425;0.640568;0.638621;0.636076;0.627582;0.628286;0.618884;0.614581;0.613021;0.613232;0.603402;0.598181;0.595618;0.592041;0.586380;0.581033;0.578438;0.576296;0.572626;0.574198;0.574154;0.563781;0.561026;0.559443;0.552588;0.550947;0.549814;0.549503;0.547707;0.541971;0.541847;0.537229;0.535474;0.534253;0.523703;0.526813;0.525564;0.520137;0.524638;0.519290;0.521230;0.513267;0.513022;0.513526;0.514720;0.506328;0.510705;0.506871
0.520368;0.521903;0.527229;0.523763;0.527386;0.531213;0.529979;0.534895;0.534464;0.540018;0.542021;0.541588;0.542954;0.543467;0.542460;0.551054;0.546935;0.550465;0.554121;0.560424;0.555267;0.561182;0.561266;0.566134;0.564918;0.570308;0.568484;0.574439;0.576936;0.570531;0.578419;0.577940;0.579004;0.583457;0.581856;0.586856;0.588875;0.587552;0.580664;0.586434;0.589224;0.588949;0.588904;0.589435;0.595787;0.591879;0.590724;0.589971;0.590241;0.592758;0.594462;0.591558;0.594539;0.591274;0.596792;0.598477;0.594771;0.594954;0.593591;0.592120;0.593931;0.591431;0.599480;0.595708;0.591301;0.592091;0.593625;0.593351;0.592466;0.593555;0.594057;0.596335;0.599265;0.598264;0.600022;0.595030;0.600913;0.604171;0.605114;0.604064;0.607397;0.606074;0.610066;0.609293;0.611383;0.617294;0.623224;0.623741;0.624048;0.625772;0.630105;0.635805;0.637591;0.635290;0.645348;0.642944;0.646502;0.648069;0.655711;0.660421;0.662298;0.667200;0.670114;0.677408;0.671940;0.674148;0.686521;0.689057;0.691789;0.694600;0.701928;0.703824;0.708542;0.707547;0.714411;0.721548;0.722318;0.726302;0.728148;0.728950;0.729302;0.737075;0.737423;0.742395;0.739647;0.744209;0.748470;0.750724;0.749553;0.753789;0.752122;0.758323;0.761609;0.762035;0.763234;0.764644;0.767948;0.769321;0.769303;0.772427;0.770971;0.772299;0.774813;0.771771;0.773832;0.770944;0.770837;0.770358;0.772955;0.770795;0.770431;0.766591;0.767201;0.764506;0.766207;0.770340;0.759636;0.758636;0.756963;0.754875;0.753921;0.745900;0.743773;0.740165;0.737339;0.729991;0.726060;0.723289;0.718007;0.713024;0.710827;0.704850;0.692756;0.691770;0.688166;0.677962;0.673279;0.668822;0.663351;0.662162;0.655222;0.643486;0.642147;0.631983;0.625226;0.622358;0.614929;0.608757;0.605828;0.597831;0.595463;0.591402;0.583056;0.577070;0.569497;0.569620;0.564494;0.559127;0.555137;0.547298
0.537320;0.537463;0.540150;0.540924;0.544382;0.543958;0.553206;0.552610;0.555446;0.555193;0.565485;0.570331;0.569480;0.569739;0.577400;0.577155;0.587998;0.591246;0.596332;0.597573;0.602961;0.605723;0.609204;0.611833;0.620056;0.624775;0.627145;0.627311;0.638527;0.644483;0.643430;0.649290;0.648723;0.657968;0.660904;0.664481;0.667569;0.677552;0.676626;0.684508;0.689114;0.689040;0.692953;0.698121;0.705277;0.708831;0.719463;0.716774;0.717902;0.725696;0.730146;0.736594;0.736234;0.744958;0.748736;0.747803;0.751978;0.759928;0.760022;0.760582;0.769223;0.770149;0.768011;0.775973;0.783421;0.785941;0.783302;0.783836;0.787917;0.789089;0.793628;0.794822;0.797907;0.795205;0.798198;0.795801;0.799853;0.802340;0.796340;0.794731;0.798530;0.802352;0.795880;0.798065;0.795389;0.794143;0.789796;0.790186;0.783243;0.784338;0.780296;0.778944;0.770773;0.771549;0.766729;0.764055;0.763797;0.756266;0.750261;0.748089;0.744326;0.746501;0.734750;0.735500;0.728582;0.725898;0.722874;0.714683;0.713939;0.705706;0.707205;0.704488;0.698627;0.698070;0.688896;0.684307;0.683898;0.677826;0.672363;0.670515;0.672178;0.660966;0.663180;0.659799;0.655663;0.653664;0.649449;0.644921;0.645194;0.645440;0.638696;0.639322;0.634586;0.632121;0.631932;0.633005;0.622715;0.624785;0.620381;0.621407;0.619329;0.610278;0.611074;0.610736;0.604285;0.607015;0.609281;0.602727;0.603704;0.602022;0.601035;0.595915;0.600919;0.598140;0.588827;0.589581;0.585171;0.586194;0.586310;0.582051;0.581760;0.583133;0.576685;0.574035;0.574324;0.570714;0.574160;0.570237;0.573192;0.565247;0.562419;0.558460;0.562087;0.554989;0.557546;0.554982;0.553177;0.553841;0.549394;0.549438;0.549077;0.545186;0.544158;0.540042;0.537113;0.537776;0.533047;0.531054;0.531194;0.533760;0.532073;0.528430;0.527460;0.527640;0.528643;0.521190;0.526284;0.516848;0.520559;0.520713
0.510810;0.516458;0.515274;0.517691;0.516762;0.521161;0.522315;0.520401;0.521686;0.528555;0.528632;0.529682;0.531617;0.530773;0.533913;0.535749;0.539278;0.536917;0.542851;0.549819;0.549412;0.554840;0.555269;0.558538;0.561719;0.567326;0.565551;0.574094;0.578219;0.576567;0.581546;0.588306;0.591396;0.596898;0.599913;0.605058;0.607985;0.614416;0.618583;0.627392;0.629054;0.636820;0.643160;0.647105;0.653477;0.660343;0.665660;0.669457;0.680975;0.688419;0.690459;0.700044;0.703738;0.710174;0.718997;0.730369;0.732708;0.740897;0.743754;0.750329;0.759257;0.763399;0.771400;0.778080;0.779365;0.791085;0.795568;0.797861;0.806529;0.807919;0.812758;0.819948;0.814895;0.823160;0.826187;0.833525;0.833787;0.835094;0.838873;0.838746;0.840388;0.840034;0.838338;0.841205;0.842252;0.836616;0.842138;0.830546;0.835242;0.832891;0.829746;0.825473;0.825560;0.822365;0.819827;0.814949;0.807081;0.807211;0.797960;0.791932;0.789298;0.786247;0.783039;0.777135;0.767798;0.767123;0.762992;0.755225;0.750097;0.747866;0.740386;0.741356;0.732568;0.726845;0.720975;0.714561;0.712196;0.711316;0.704661;0.700220;0.697553;0.690509;0.684857;0.680153;0.678565;0.678391;0.669807;0.669207;0.664875;0.662277;0.658409;0.657700;0.652804;0.647671;0.646850;0.647484;0.636569;0.634258;0.638460;0.632861;0.627885;0.620985;0.627677;0.623054;0.627614;0.620515;0.614857;0.615351;0.612462;0.613268;0.608277;0.613223;0.605572;0.602216;0.604887;0.599505;0.600192;0.594971;0.592824;0.595054;0.591349;0.591610;0.587192;0.584400;0.584301;0.580788;0.577518;0.579235;0.574349;0.570364;0.571710;0.571091;0.563655;0.565988;0.563238;0.560468;0.563046;0.555916;0.551809;0.555584;0.549235;0.544547;0.547432;0.550004;0.542839;0.543482;0.538177;0.540410;0.535950;0.531985;0.534990;0.534582;0.526549;0.533141;0.524896;0.524905;0.526630;0.527307;0.521011;0.523651
0.522284;0.521851;0.523439;0.520596;0.527229;0.530406;0.527798;0.539508;0.537021;0.537962;0.543913;0.540373;0.539237;0.546277;0.546071;0.549603;0.549323;0.554919;0.559635;0.560810;0.565324;0.561994;0.575544;0.571924;0.578399;0.581707;0.584980;0.591010;0.590553;0.593184;0.599242;0.602985;0.607199;0.612306;0.617009;0.623564;0.632732;0.631019;0.637445;0.637783;0.646042;0.653634;0.652287;0.658379;0.660440;0.670403;0.675763;0.682632;0.685413;0.695575;0.697275;0.704341;0.710765;0.718605;0.722706;0.726164;0.734350;0.740830;0.744057;0.753683;0.754264;0.757064;0.767359;0.772129;0.771801;0.775604;0.786639;0.790331;0.796397;0.801763;0.800449;0.809449;0.812804;0.819621;0.822086;0.824071;0.825041;0.825943;0.825255;0.836643;0.834130;0.832365;0.842796;0.836994;0.839726;0.841070;0.834393;0.837430;0.840280;0.840956;0.839056;0.835138;0.830533;0.834856;0.828978;0.825383;0.831249;0.826965;0.821994;0.824330;0.816638;0.814814;0.811976;0.805362;0.809134;0.807765;0.802451;0.793433;0.789813;0.786236;0.782903;0.775598;0.773054;0.773831;0.768692;0.760920;0.757929;0.750438;0.749087;0.744515;0.735615;0.731443;0.726084;0.729296;0.716809;0.710959;0.709902;0.704252;0.700682;0.693397;0.686746;0.681361;0.675879;0.672100;0.672417;0.660759;0.652387;0.652105;0.647128;0.640228;0.637431;0.629056;0.625373;0.621045;0.613716;0.608760;0.603833;0.604366;0.596657;0.597622;0.588308;0.586733;0.577601;0.572838;0.573677;0.566992;0.564706;0.562451;0.558581;0.556498;0.552824;0.550302;0.549989;0.542887;0.543110;0.540328;0.536951;0.536790;0.527949;0.534307;0.530285;0.527911;0.526492;0.521604;0.526846;0.526098;0.517561;0.517788;0.516090;0.512138;0.513909;0.515776;0.514672;0.510679;0.513765;0.511337;0.507528;0.510848;0.513898;0.509712;0.508567;0.508067;0.509887;0.512154;0.508195;0.508286;0.507874;0.509562;0.508014;0.505376
0.564067;0.567331;0.569468;0.573715;0.579723;0.584483;0.587297;0.590642;0.596926;0.600438;0.606072;0.614914;0.621608;0.626241;0.635933;0.636413;0.647136;0.647435;0.651281;0.660136;0.665383;0.666614;0.671468;0.682106;0.685633;0.685673;0.695157;0.704314;0.700232;0.702700;0.706992;0.714292;0.715382;0.716739;0.723101;0.725696;0.722058;0.726441;0.727555;0.726597;0.727951;0.728959;0.729303;0.726872;0.731344;0.724319;0.726824;0.722797;0.720720;0.721931;0.719536;0.714486;0.714009;0.708326;0.700933;0.702139;0.696207;0.690436;0.686378;0.679370;0.678552;0.669829;0.667782;0.665795;0.660926;0.656771;0.647389;0.645577;0.637857;0.639161;0.627141;0.623889;0.622117;0.619797;0.608341;0.605692;0.603516;0.592446;0.598567;0.594500;0.585833;0.584052;0.583820;0.578636;0.574395;0.568450;0.567757;0.567486;0.569344;0.563616;0.558518;0.558045;0.551462;0.554836;0.550802;0.549684;0.548339;0.551855;0.546506;0.546718;0.548196;0.546235;0.549997;0.546842;0.551600;0.554295;0.551241;0.550059;0.561289;0.555635;0.557817;0.565352;0.565064;0.560462;0.570828;0.570110;0.572392;0.574976;0.582696;0.585036;0.586723;0.587822;0.593043;0.601920;0.598092;0.607426;0.614364;0.615374;0.623270;0.625075;0.637344;0.639402;0.641197;0.650985;0.653397;0.657599;0.667877;0.674464;0.679876;0.683955;0.689709;0.693927;0.700951;0.702727;0.707703;0.718035;0.719751;0.724497;0.726180;0.730980;0.726456;0.738374;0.737074;0.741684;0.738372;0.738619;0.744713;0.744295;0.750775;0.746816;0.740521;0.745483;0.741319;0.746840;0.740972;0.741536;0.736617;0.732994;0.728841;0.727918;0.720056;0.716101;0.714364;0.708265;0.707823;0.696123;0.693066;0.686415;0.683831;0.676501;0.666877;0.668676;0.660672;0.653571;0.649143;0.647022;0.637888;0.627422;0.623340;0.613634;0.616317;0.603697;0.599779;0.595082;0.591656;0.587222;0.574853;0.575706;0.574279;0.570497
0.590670;0.593433;0.598061;0.604950;0.613313;0.623497;0.627647;0.637569;0.640412;0.650067;0.654634;0.664105;0.670877;0.685098;0.687200;0.691933;0.698531;0.712550;0.718229;0.728865;0.734667;0.742748;0.748785;0.760074;0.763228;0.769776;0.777871;0.782969;0.789525;0.788506;0.799123;0.809600;0.807304;0.820017;0.818519;0.815472;0.826021;0.824981;0.827683;0.828591;0.826909;0.826566;0.831268;0.827018;0.823401;0.824996;0.820565;0.818642;0.813781;0.815454;0.812714;0.802356;0.801289;0.795933;0.790864;0.786287;0.781166;0.770343;0.769115;0.763883;0.754596;0.748998;0.745085;0.736902;0.726800;0.726080;0.713178;0.705684;0.705130;0.694242;0.689439;0.684851;0.679054;0.671162;0.669849;0.662255;0.657328;0.652320;0.650907;0.647481;0.641169;0.634723;0.628931;0.628337;0.625081;0.627065;0.625440;0.615578;0.622173;0.614271;0.616868;0.616978;0.610407;0.608151;0.612904;0.611470;0.611705;0.611692;0.614644;0.615178;0.610346;0.608330;0.612168;0.614163;0.609661;0.613842;0.616883;0.615518;0.613860;0.618711;0.616952;0.616097;0.617740;0.618708;0.617129;0.623915;0.616050;0.616687;0.622530;0.626949;0.622307;0.623424;0.622711;0.623803;0.619507;0.623195;0.622262;0.621995;0.620228;0.618943;0.618893;0.616526;0.615622;0.616821;0.618200;0.612316;0.615566;0.615267;0.610802;0.608891;0.606331;0.607279;0.606176;0.603716;0.600462;0.603195;0.601252;0.601218;0.600688;0.598950;0.589256;0.592606;0.592319;0.587473;0.585353;0.583790;0.579422;0.583491;0.579731;0.577794;0.572573;0.574765;0.572564;0.569854;0.571253;0.564423;0.564270;0.562830;0.564648;0.557261;0.555027;0.554474;0.559299;0.553228;0.551509;0.544572;0.544298;0.540603;0.541796;0.543974;0.539558;0.534754;0.536984;0.532215;0.530929;0.532391;0.525232;0.527459;0.523986;0.526950;0.523730;0.524151;0.519197;0.517590;0.519337;0.514144;0.512630;0.514199;0.515968;0.509557
0.507424;0.505954;0.511480;0.507340;0.500956;0.503127;0.505037;0.504957;0.503883;0.508277;0.507403;0.501441;0.509325;0.501374;0.508797;0.509564;0.506892;0.511067;0.508953;0.512168;0.512657;0.511854;0.512517;0.515222;0.519004;0.518616;0.515303;0.519118;0.521817;0.527925;0.527455;0.530035;0.524771;0.531944;0.534351;0.534577;0.533706;0.536345;0.536912;0.544121;0.548172;0.551506;0.552197;0.557346;0.559222;0.558556;0.566219;0.565105;0.572064;0.571201;0.577437;0.576132;0.582106;0.590299;0.593447;0.596787;0.593317;0.600447;0.602244;0.610256;0.609106;0.610266;0.615483;0.619524;0.621489;0.627240;0.632073;0.628961;0.637110;0.640324;0.641612;0.643440;0.647628;0.647804;0.651482;0.654681;0.650009;0.654901;0.654217;0.654955;0.657187;0.662882;0.659894;0.661893;0.667644;0.665300;0.662623;0.667576;0.664879;0.664952;0.663652;0.663928;0.661897;0.666214;0.668076;0.662295;0.662715;0.662206;0.661445;0.662061;0.656747;0.662098;0.662314;0.663302;0.657247;0.658229;0.665493;0.661572;0.659566;0.665995;0.658949;0.664136;0.667809;0.669219;0.672943;0.667765;0.668843;0.670644;0.678725;0.670722;0.681952;0.686762;0.688212;0.690758;0.693283;0.700311;0.701625;0.704942;0.709021;0.708914;0.718039;0.726214;0.726668;0.735364;0.735684;0.743097;0.746938;0.756080;0.755270;0.762066;0.765100;0.771303;0.775357;0.781276;0.791741;0.791536;0.791877;0.794770;0.799405;0.800116;0.804792;0.803142;0.808957;0.807505;0.813903;0.809484;0.813251;0.810913;0.811277;0.810495;0.810719;0.809038;0.805568;0.801221;0.799685;0.797521;0.793001;0.789667;0.787398;0.776127;0.775562;0.770989;0.757338;0.753890;0.750953;0.743189;0.735676;0.733348;0.729439;0.721869;0.706494;0.700400;0.697218;0.693942;0.683271;0.672597;0.663760;0.657175;0.656276;0.644145;0.635930;0.631418;0.624911;0.612911;0.610375;0.605896;0.600251;0.593947;0.590425;0.580709
0.512483;0.512730;0.513950;0.519060;0.517147;0.518549;0.517427;0.522998;0.523544;0.525887;0.521897;0.527494;0.522220;0.529977;0.530016;0.533256;0.529487;0.530753;0.536520;0.537766;0.537156;0.537842;0.543143;0.546437;0.543488;0.541326;0.545915;0.551976;0.548333;0.551453;0.552175;0.553166;0.554683;0.563472;0.560402;0.562530;0.561469;0.563512;0.568551;0.569286;0.571789;0.566611;0.568330;0.574202;0.579849;0.578042;0.582538;0.578295;0.585207;0.587491;0.588956;0.591264;0.594561;0.593586;0.593795;0.599164;0.599709;0.601183;0.607710;0.607694;0.611447;0.613612;0.620716;0.616905;0.621937;0.624199;0.634253;0.633662;0.635556;0.636711;0.646666;0.646466;0.657503;0.656555;0.663004;0.663699;0.668797;0.675667;0.680367;0.685988;0.694644;0.701722;0.701523;0.707882;0.712136;0.723503;0.730149;0.738500;0.740647;0.748063;0.755872;0.766375;0.768528;0.774890;0.779279;0.792464;0.802100;0.803575;0.812572;0.816358;0.824654;0.831093;0.837648;0.841938;0.849254;0.851147;0.860668;0.864359;0.870849;0.871135;0.876057;0.877270;0.882261;0.883176;0.887297;0.884877;0.895821;0.890375;0.885472;0.890392;0.886880;0.886693;0.882235;0.877527;0.877656;0.877457;0.870665;0.866554;0.860438;0.856340;0.850518;0.845549;0.839460;0.834579;0.821034;0.817150;0.810922;0.804445;0.793978;0.784652;0.778082;0.770279;0.763736;0.750633;0.748309;0.733480;0.728109;0.717896;0.710121;0.698465;0.695868;0.681519;0.672029;0.670177;0.663045;0.651596;0.645795;0.639079;0.636112;0.625192;0.620012;0.611830;0.608315;0.600926;0.595122;0.593526;0.585580;0.580140;0.577587;0.572417;0.569865;0.566343;0.559416;0.553358;0.550699;0.553681;0.548374;0.545470;0.541419;0.538506;0.540565;0.534387;0.540341;0.530696;0.527642;0.525328;0.523833;0.524438;0.520859;0.523630;0.519837;0.520998;0.523396;0.516353;0.516916;0.514238;0.517777;0.517506;0.510386;0.511324
0.517390;0.510798;0.512326;0.513191;0.517445;0.516153;0.522669;0.524205;0.521752;0.522548;0.523924;0.531503;0.526316;0.532957;0.534817;0.533722;0.535670;0.539584;0.539113;0.544163;0.546924;0.545751;0.551011;0.549694;0.552323;0.557359;0.554631;0.563460;0.565982;0.571296;0.574304;0.572083;0.576822;0.579995;0.585535;0.591761;0.593202;0.594196;0.599865;0.601370;0.612883;0.617049;0.623316;0.623105;0.626613;0.631643;0.640245;0.645207;0.645924;0.652378;0.656728;0.667093;0.675920;0.674111;0.682610;0.681431;0.695508;0.696788;0.705710;0.708636;0.713036;0.718124;0.724813;0.727955;0.736610;0.740301;0.743049;0.748076;0.755100;0.760806;0.765137;0.769822;0.777129;0.779654;0.786951;0.789109;0.792798;0.794801;0.798859;0.799017;0.807123;0.808319;0.813849;0.812305;0.812872;0.818670;0.816626;0.823391;0.825352;0.822244;0.826249;0.828384;0.830061;0.827306;0.826942;0.831589;0.825763;0.828227;0.824921;0.827947;0.828503;0.831277;0.829367;0.828932;0.826215;0.825737;0.823198;0.823545;0.818443;0.817401;0.815838;0.813166;0.812488;0.801764;0.797695;0.800385;0.795493;0.792542;0.794438;0.783176;0.784116;0.773906;0.772491;0.768922;0.766284;0.759278;0.755110;0.752017;0.751807;0.741193;0.734070;0.726553;0.725291;0.723738;0.713214;0.705120;0.701304;0.692079;0.692185;0.681880;0.677872;0.669756;0.664046;0.659573;0.650708;0.648455;0.640869;0.630213;0.631226;0.624785;0.619642;0.616571;0.614194;0.604785;0.602933;0.594755;0.589699;0.585726;0.581547;0.576186;0.576723;0.570132;0.567711;0.559564;0.559651;0.556417;0.555265;0.551045;0.550417;0.545790;0.546071;0.543126;0.537905;0.535183;0.539453;0.533109;0.530943;0.528200;0.528872;0.525320;0.527577;0.520620;0.520476;0.519242;0.518471;0.516804;0.517187;0.514730;0.515524;0.516303;0.518000;0.514235;0.509896;0.511900;0.515815;0.511513;0.510089;0.512393;0.507046;0.506255
0.540276;0.535718;0.538248;0.543192;0.548080;0.548565;0.555723;0.557566;0.560419;0.562198;0.570093;0.572239;0.573600;0.573962;0.586270;0.585147;0.591060;0.594752;0.596841;0.601583;0.610577;0.607273;0.615106;0.621630;0.624446;0.623338;0.632717;0.633367;0.637634;0.642884;0.647237;0.652280;0.650478;0.657669;0.660455;0.668079;0.665617;0.672408;0.671267;0.677460;0.683273;0.682953;0.683802;0.688969;0.691347;0.695990;0.697838;0.708104;0.700559;0.703973;0.703490;0.711561;0.712225;0.717422;0.712922;0.716663;0.721034;0.714116;0.721961;0.723785;0.725084;0.725028;0.725783;0.729242;0.726766;0.733061;0.729644;0.729675;0.726354;0.731163;0.732645;0.730996;0.730190;0.727042;0.728851;0.725251;0.724573;0.724372;0.727920;0.721858;0.722120;0.723519;0.720899;0.718930;0.720478;0.715282;0.714237;0.712869;0.706989;0.709971;0.703949;0.702721;0.702935;0.699557;0.696700;0.692258;0.689029;0.684591;0.680674;0.678973;0.680602;0.678189;0.672062;0.666814;0.668152;0.666610;0.666415;0.660138;0.660492;0.656626;0.648071;0.654690;0.658111;0.654437;0.650626;0.650415;0.646284;0.645827;0.645625;0.648207;0.641983;0.642800;0.643139;0.648003;0.642735;0.640260;0.642865;0.642210;0.647527;0.647346;0.649066;0.648250;0.644930;0.646939;0.651595;0.650828;0.648857;0.654032;0.651522;0.650883;0.657725;0.657239;0.653878;0.657964;0.661537;0.664067;0.658483;0.661175;0.665623;0.664928;0.671464;0.667278;0.665303;0.669226;0.659754;0.668140;0.665360;0.668854;0.657037;0.663413;0.661278;0.660115;0.660090;0.659125;0.656867;0.654219;0.648333;0.653079;0.649053;0.645779;0.643739;0.643192;0.638823;0.631631;0.631128;0.627435;0.621699;0.617061;0.614978;0.609258;0.609005;0.603393;0.600750;0.599347;0.592935;0.589189;0.586251;0.580451;0.575871;0.576548;0.570165;0.562036;0.566031;0.562878;0.559503;0.553627;0.553950;0.549712;0.546430;0.544049
0.522034;0.522772;0.522214;0.520070;0.526311;0.525134;0.529408;0.531133;0.531310;0.538734;0.540606;0.541849;0.537704;0.543456;0.546162;0.548581;0.553138;0.551064;0.555488;0.559071;0.565091;0.565945;0.568119;0.574684;0.575076;0.575590;0.580818;0.586306;0.588719;0.594890;0.595572;0.599027;0.607601;0.608500;0.611308;0.613393;0.622466;0.623546;0.634192;0.637974;0.641789;0.651942;0.651704;0.660557;0.661334;0.667809;0.670764;0.681607;0.689977;0.689237;0.698839;0.701429;0.705987;0.711614;0.719169;0.725849;0.726358;0.730399;0.742288;0.751113;0.753598;0.750579;0.764990;0.767600;0.769987;0.775768;0.784773;0.781502;0.793984;0.796143;0.803938;0.805353;0.807206;0.809660;0.815975;0.813675;0.816121;0.817381;0.820081;0.818152;0.819397;0.820355;0.819284;0.817632;0.818973;0.817323;0.814607;0.814310;0.819549;0.811850;0.810438;0.808603;0.798849;0.799583;0.795470;0.795357;0.789161;0.784622;0.779665;0.778474;0.776593;0.765384;0.766002;0.759369;0.754533;0.746941;0.746361;0.741992;0.732924;0.731525;0.727958;0.719283;0.715219;0.713569;0.708516;0.705050;0.692053;0.697323;0.696001;0.691056;0.686293;0.676022;0.677896;0.675785;0.672707;0.668675;0.664992;0.659582;0.656038;0.654452;0.646850;0.647422;0.645777;0.644532;0.638277;0.640539;0.640731;0.633418;0.635262;0.628327;0.626287;0.622953;0.627010;0.619598;0.618037;0.614487;0.620244;0.617522;0.616598;0.609672;0.607862;0.610034;0.607952;0.604938;0.605204;0.602097;0.596476;0.600062;0.594394;0.594579;0.592617;0.592193;0.592259;0.590275;0.582045;0.582762;0.581182;0.578725;0.572254;0.576555;0.575898;0.570329;0.567917;0.565393;0.566163;0.566315;0.562274;0.557838;0.555983;0.555775;0.551932;0.546711;0.547583;0.542841;0.541164;0.543040;0.536706;0.535778;0.534362;0.534022;0.534155;0.532067;0.525778;0.528995;0.525936;0.524905;0.523948;0.514523;0.519408;0.516950
0.544607;0.544887;0.550288;0.553939;0.556612;0.558876;0.563742;0.565213;0.571934;0.573546;0.576459;0.582546;0.583982;0.589406;0.590104;0.591699;0.602926;0.608454;0.607805;0.615144;0.617796;0.626127;0.625146;0.630662;0.631726;0.639333;0.641588;0.645761;0.646299;0.653305;0.657017;0.657974;0.662312;0.664805;0.664431;0.666429;0.668180;0.672477;0.673650;0.675013;0.672838;0.679617;0.673652;0.680639;0.678225;0.680031;0.681119;0.677275;0.680665;0.674474;0.677238;0.681321;0.674365;0.678006;0.674297;0.675536;0.673829;0.668458;0.664986;0.668964;0.669722;0.668830;0.663358;0.663519;0.665725;0.661844;0.668601;0.666842;0.662628;0.660812;0.662201;0.664496;0.662373;0.660848;0.661906;0.662095;0.664746;0.664467;0.671946;0.667656;0.673419;0.679486;0.675073;0.679831;0.687168;0.682619;0.687455;0.690799;0.692643;0.700586;0.698724;0.705776;0.704804;0.712629;0.720397;0.716512;0.723598;0.731759;0.730349;0.735021;0.740274;0.744838;0.745214;0.750752;0.757495;0.758674;0.763036;0.767532;0.761482;0.773474;0.774688;0.779290;0.777085;0.779067;0.781514;0.783869;0.788176;0.789925;0.781814;0.783580;0.793670;0.783301;0.785078;0.784132;0.783887;0.780615;0.777053;0.774286;0.768658;0.765512;0.766158;0.760296;0.754354;0.750164;0.748684;0.737922;0.738557;0.735946;0.723834;0.725631;0.717903;0.714852;0.705565;0.702848;0.698360;0.689735;0.685555;0.680410;0.671858;0.665943;0.665948;0.657024;0.651122;0.648946;0.644467;0.639226;0.633947;0.629479;0.619285;0.619666;0.615889;0.606416;0.607910;0.599586;0.597555;0.596551;0.590971;0.585655;0.583648;0.580510;0.575495;0.573845;0.568473;0.565306;0.560987;0.561050;0.559996;0.558408;0.551566;0.550548;0.549136;0.548582;0.544251;0.549347;0.541997;0.539621;0.541051;0.535167;0.532850;0.535608;0.535258;0.529896;0.526790;0.532699;0.528100;0.526040;0.525566;0.528823;0.523211;0.522242
0.505608;0.502188;0.507960;0.506716;0.506381;0.507292;0.507294;0.509862;0.512159;0.512344;0.513314;0.514244;0.513493;0.511576;0.513531;0.517357;0.518518;0.526323;0.517171;0.527280;0.522453;0.524097;0.528011;0.527227;0.531277;0.531333;0.530434;0.537269;0.534200;0.541899;0.539855;0.544637;0.546777;0.550344;0.554652;0.554645;0.560209;0.559425;0.565539;0.566385;0.578796;0.572979;0.576985;0.581946;0.590562;0.591890;0.596049;0.598444;0.608275;0.609889;0.613797;0.613484;0.622961;0.629048;0.634169;0.639599;0.640181;0.647634;0.653882;0.664737;0.664290;0.667339;0.671212;0.682763;0.683348;0.695774;0.697614;0.697720;0.705457;0.713693;0.716370;0.723666;0.730671;0.732982;0.735668;0.744493;0.743706;0.746284;0.753940;0.752299;0.758971;0.764192;0.770537;0.770887;0.775404;0.782711;0.787386;0.788369;0.787809;0.797401;0.799138;0.799022;0.803174;0.801251;0.807759;0.805171;0.813596;0.809866;0.811229;0.812715;0.814541;0.817341;0.820312;0.818384;0.821564;0.816984;0.823392;0.819076;0.823687;0.825510;0.824112;0.815015;0.825922;0.818359;0.819400;0.810049;0.813937;0.807667;0.810122;0.807202;0.804337;0.802214;0.797647;0.798299;0.790000;0.786364;0.788066;0.774005;0.777118;0.775230;0.765152;0.765052;0.757179;0.753645;0.748927;0.740399;0.736038;0.728068;0.724889;0.719213;0.708054;0.713006;0.701787;0.694093;0.692930;0.686046;0.676607;0.674344;0.669416;0.665814;0.658020;0.654343;0.647347;0.641903;0.638404;0.634989;0.625127;0.623236;0.615105;0.609783;0.611197;0.604583;0.598869;0.593798;0.598447;0.585962;0.586840;0.582990;0.578885;0.575081;0.568541;0.569029;0.566164;0.556173;0.556824;0.551705;0.549544;0.553524;0.552971;0.545308;0.541989;0.541405;0.532328;0.536675;0.530933;0.526602;0.531327;0.525719;0.524546;0.522954;0.518455;0.515600;0.516431;0.515271;0.514758;0.514284;0.517149;0.508467;0.506140;0.505950
0.521192;0.524150;0.524505;0.525055;0.525787;0.522338;0.529564;0.537714;0.540091;0.535457;0.536575;0.541975;0.546475;0.540957;0.550055;0.551510;0.553028;0.555006;0.560728;0.566761;0.565944;0.564974;0.572394;0.578674;0.579269;0.580965;0.586731;0.585350;0.589643;0.599669;0.598773;0.606642;0.613593;0.613512;0.618285;0.614320;0.621679;0.627692;0.628896;0.638679;0.642317;0.647613;0.649524;0.653599;0.655006;0.662540;0.669844;0.673441;0.681820;0.685701;0.685879;0.690078;0.700729;0.695901;0.704100;0.709551;0.713341;0.720537;0.722296;0.730001;0.732299;0.738112;0.738404;0.743169;0.746076;0.746430;0.753260;0.757687;0.759062;0.761832;0.764190;0.767473;0.762136;0.772830;0.772105;0.772505;0.768781;0.773171;0.771091;0.768687;0.773508;0.769144;0.769112;0.767562;0.763682;0.765949;0.767258;0.757403;0.756337;0.752724;0.747914;0.745741;0.743209;0.737343;0.737673;0.730796;0.725864;0.726089;0.718138;0.708040;0.704809;0.700522;0.698576;0.691704;0.693019;0.682394;0.681608;0.680606;0.674294;0.669276;0.662824;0.658806;0.653124;0.654115;0.653589;0.651053;0.648556;0.646745;0.648448;0.641159;0.640923;0.639539;0.633608;0.635028;0.636106;0.633464;0.632610;0.632014;0.638724;0.632256;0.630134;0.632789;0.631785;0.640569;0.637085;0.637826;0.639104;0.639401;0.644293;0.647547;0.645707;0.649413;0.646501;0.652609;0.655283;0.649938;0.654752;0.655407;0.659988;0.660991;0.659312;0.657490;0.660590;0.661965;0.660354;0.657099;0.658540;0.659216;0.661806;0.663198;0.661700;0.658678;0.656677;0.649934;0.652970;0.651896;0.649146;0.648380;0.640796;0.647041;0.636536;0.637398;0.637153;0.630842;0.627584;0.628782;0.621232;0.620472;0.611186;0.607955;0.603598;0.599106;0.597184;0.590858;0.591012;0.591490;0.581308;0.574100;0.572192;0.575188;0.562782;0.562843;0.562114;0.558587;0.551930;0.547076;0.548038;0.543058;0.538455;0.543162
0.562742;0.567157;0.570662;0.580250;0.586887;0.581832;0.589920;0.596324;0.605467;0.610271;0.614026;0.615945;0.625012;0.633301;0.636184;0.646765;0.651192;0.658015;0.661804;0.668782;0.672549;0.678171;0.680675;0.689731;0.695433;0.699828;0.703903;0.708030;0.718232;0.716297;0.724085;0.724742;0.731196;0.733801;0.738909;0.737889;0.743325;0.740196;0.743549;0.746110;0.744876;0.746975;0.748243;0.746179;0.742760;0.744397;0.751134;0.747142;0.739605;0.741704;0.736806;0.744066;0.734644;0.736771;0.730504;0.722368;0.724662;0.717784;0.714282;0.711005;0.703172;0.704443;0.701922;0.698208;0.693428;0.688799;0.687487;0.679365;0.673067;0.673259;0.667897;0.661619;0.661112;0.654008;0.654409;0.645872;0.644213;0.642558;0.638249;0.637007;0.630371;0.629843;0.627796;0.625213;0.619292;0.618743;0.615706;0.616410;0.610224;0.609339;0.609131;0.607524;0.607334;0.608814;0.601621;0.599447;0.602323;0.603805;0.598981;0.600873;0.599606;0.595766;0.604790;0.604157;0.599303;0.598676;0.604844;0.601536;0.606000;0.604694;0.607029;0.607297;0.602778;0.604444;0.609172;0.612865;0.606628;0.613001;0.615848;0.618317;0.622136;0.618469;0.626428;0.625415;0.628789;0.628931;0.633647;0.636520;0.639601;0.636159;0.645381;0.646444;0.647414;0.650179;0.652295;0.656249;0.662686;0.660460;0.661959;0.668269;0.668969;0.674330;0.675650;0.673318;0.674261;0.681584;0.681183;0.684947;0.685454;0.685189;0.685579;0.687771;0.688268;0.691423;0.683376;0.689736;0.688554;0.690148;0.688945;0.686953;0.688192;0.689586;0.684841;0.681460;0.681148;0.678254;0.676849;0.672898;0.667108;0.662572;0.665546;0.654335;0.655086;0.656002;0.653011;0.646397;0.642835;0.636257;0.634000;0.630283;0.626504;0.614604;0.618593;0.608749;0.609087;0.610929;0.605940;0.596507;0.588057;0.588907;0.581527;0.581955;0.578773;0.576151;0.567746;0.564644;0.565585;0.562095;0.555588;0.551832
0.527176;0.527965;0.532683;0.534736;0.539977;0.539427;0.539496;0.540987;0.551737;0.548166;0.548878;0.556404;0.559574;0.565819;0.569376;0.565237;0.569930;0.571112;0.574528;0.576241;0.583758;0.584589;0.586953;0.597129;0.599039;0.597721;0.595474;0.601024;0.607827;0.614651;0.613979;0.615702;0.624358;0.625752;0.624227;0.630813;0.629997;0.634131;0.634343;0.639330;0.641454;0.645921;0.648007;0.653740;0.653159;0.657009;0.658573;0.661858;0.664055;0.669826;0.670816;0.668722;0.674654;0.671014;0.680806;0.678878;0.679337;0.681074;0.683950;0.688686;0.686769;0.687900;0.692936;0.691239;0.698630;0.698409;0.701174;0.704379;0.704770;0.703078;0.709494;0.705594;0.711237;0.711415;0.708433;0.711692;0.717054;0.716247;0.721160;0.714061;0.718666;0.722414;0.722652;0.720809;0.724633;0.719993;0.724316;0.725302;0.727438;0.720686;0.730798;0.723642;0.724971;0.725443;0.724638;0.723837;0.727835;0.723450;0.726186;0.724998;0.729855;0.724836;0.726024;0.723172;0.727202;0.720668;0.731112;0.724794;0.724820;0.720716;0.721601;0.722359;0.725553;0.723148;0.723621;0.717678;0.715414;0.720908;0.716201;0.714007;0.718728;0.713176;0.713194;0.713140;0.708792;0.710672;0.710143;0.709670;0.707325;0.704598;0.703717;0.699657;0.701281;0.699678;0.696166;0.695206;0.693338;0.692841;0.689065;0.688635;0.682134;0.684016;0.677795;0.681721;0.674916;0.673799;0.672282;0.672430;0.667367;0.669619;0.664588;0.661078;0.658917;0.658105;0.654763;0.648723;0.649089;0.645635;0.641950;0.643618;0.635091;0.627968;0.628225;0.626982;0.624311;0.621999;0.614612;0.614408;0.608995;0.612718;0.603063;0.600915;0.598122;0.595515;0.594004;0.588225;0.590091;0.581434;0.581217;0.578835;0.576355;0.573077;0.568861;0.566811;0.565923;0.555499;0.560509;0.552967;0.552818;0.548376;0.543977;0.545429;0.539252;0.533266;0.538732;0.530959;0.528636;0.531276;0.527358;0.523930
0.510195;0.513515;0.517885;0.513830;0.519029;0.517912;0.520690;0.517125;0.520861;0.518101;0.524654;0.524048;0.525375;0.524739;0.527408;0.526139;0.526992;0.525585;0.534482;0.532962;0.535834;0.532523;0.539312;0.535441;0.540317;0.539578;0.542617;0.548543;0.540657;0.546159;0.550515;0.554024;0.556475;0.560199;0.559603;0.556304;0.558771;0.566081;0.560059;0.565487;0.567298;0.570588;0.575670;0.573054;0.569912;0.575226;0.577922;0.584807;0.584583;0.582790;0.585139;0.587498;0.588994;0.588635;0.593476;0.593411;0.590146;0.600770;0.602814;0.601245;0.606963;0.607450;0.609746;0.609081;0.610093;0.616221;0.613896;0.617338;0.620662;0.623748;0.622490;0.619150;0.622918;0.627699;0.628664;0.625286;0.634183;0.631072;0.634511;0.637019;0.634242;0.639494;0.641374;0.638871;0.637552;0.637190;0.647060;0.642510;0.642715;0.644632;0.649678;0.649887;0.648954;0.653245;0.650994;0.646466;0.652143;0.660155;0.658572;0.660304;0.662566;0.658871;0.664942;0.664055;0.662266;0.667179;0.673325;0.669337;0.667122;0.672650;0.676204;0.670672;0.678737;0.679958;0.682383;0.683067;0.686580;0.688682;0.696520;0.694989;0.697172;0.703797;0.704480;0.707485;0.709447;0.716967;0.720858;0.716724;0.726704;0.737137;0.731340;0.732211;0.734822;0.739090;0.745855;0.749990;0.752580;0.755395;0.757053;0.760229;0.764084;0.775478;0.767672;0.778433;0.776674;0.776299;0.781585;0.783265;0.787155;0.786370;0.785880;0.786161;0.791452;0.791444;0.788425;0.784833;0.790372;0.786052;0.786709;0.781469;0.779402;0.778470;0.774995;0.780428;0.774686;0.769883;0.759055;0.756011;0.755638;0.750701;0.743951;0.736285;0.738892;0.723380;0.720700;0.715072;0.709996;0.701114;0.694493;0.692797;0.682676;0.676573;0.667062;0.665408;0.655581;0.647309;0.645092;0.634409;0.628391;0.622383;0.617320;0.612337;0.607528;0.595306;0.594050;0.588718;0.581937;0.575339;0.570118;0.566795
0.502672;0.501621;0.509443;0.500927;0.499596;0.504399;0.508884;0.505158;0.504340;0.506300;0.505532;0.505189;0.504173;0.505623;0.504844;0.510756;0.508978;0.508841;0.510062;0.506067;0.511179;0.506500;0.504618;0.506700;0.511348;0.510446;0.512083;0.505292;0.513468;0.512105;0.517113;0.517025;0.513778;0.512238;0.513605;0.508933;0.510361;0.513105;0.516135;0.513364;0.516542;0.516818;0.516888;0.514428;0.517162;0.514538;0.511847;0.514782;0.515630;0.518505;0.516277;0.519188;0.521057;0.513170;0.518951;0.522401;0.523612;0.522543;0.523860;0.524049;0.521248;0.523429;0.524239;0.527105;0.527950;0.533363;0.529400;0.536255;0.536423;0.543175;0.539965;0.543504;0.546435;0.550139;0.550209;0.552747;0.561976;0.566916;0.570988;0.568639;0.571927;0.575980;0.582936;0.586386;0.585228;0.592490;0.597438;0.602818;0.609855;0.618426;0.620387;0.624387;0.629633;0.640682;0.642479;0.652588;0.654434;0.662646;0.671861;0.674323;0.680329;0.684904;0.691938;0.703030;0.711062;0.712786;0.718633;0.723990;0.734844;0.740071;0.743350;0.747133;0.758238;0.762729;0.763738;0.771645;0.775196;0.781899;0.786970;0.793601;0.796716;0.797524;0.805514;0.809072;0.815912;0.814540;0.819927;0.820846;0.825679;0.826644;0.830615;0.832860;0.842405;0.835901;0.843888;0.847179;0.847825;0.848143;0.844925;0.849263;0.852568;0.852004;0.848097;0.849059;0.849105;0.856562;0.849338;0.851499;0.855022;0.846500;0.844801;0.848193;0.847208;0.841524;0.843573;0.838393;0.835458;0.828495;0.825653;0.825346;0.818453;0.813606;0.808513;0.808070;0.797314;0.794049;0.796034;0.786973;0.779870;0.774613;0.762483;0.756311;0.756666;0.744787;0.740676;0.733746;0.721985;0.717754;0.710151;0.703290;0.697563;0.687716;0.678117;0.674209;0.666713;0.659498;0.653728;0.641310;0.642449;0.629962;0.623909;0.612800;0.611000;0.605407;0.604969;0.593868;0.591200;0.580324;0.581979;0.574459
0.526886;0.528917;0.533385;0.533450;0.534259;0.536186;0.539527;0.544221;0.545324;0.548774;0.549572;0.557384;0.557731;0.565373;0.562054;0.561143;0.568688;0.571994;0.571370;0.579034;0.577325;0.584135;0.590152;0.587950;0.599915;0.602415;0.601903;0.605244;0.614068;0.613365;0.622963;0.625202;0.630401;0.634350;0.636672;0.642078;0.644349;0.654746;0.656282;0.664133;0.665774;0.670836;0.676323;0.678765;0.687252;0.686243;0.693071;0.696880;0.706690;0.707274;0.712617;0.719647;0.730701;0.730281;0.735889;0.736163;0.738592;0.750959;0.757582;0.757031;0.765155;0.770033;0.774410;0.776305;0.782395;0.789826;0.790260;0.790169;0.798324;0.801423;0.799700;0.805061;0.812771;0.807728;0.815943;0.814392;0.815520;0.815683;0.816628;0.819156;0.817990;0.822697;0.820179;0.819320;0.818946;0.820967;0.818333;0.814825;0.814580;0.816701;0.809049;0.804878;0.801744;0.803108;0.802404;0.792865;0.791940;0.789267;0.784028;0.783973;0.781993;0.774618;0.774671;0.766682;0.761114;0.761979;0.753678;0.748066;0.748750;0.738323;0.735655;0.731506;0.733440;0.725212;0.720709;0.718936;0.711519;0.707330;0.703665;0.697366;0.695580;0.688371;0.687995;0.679733;0.679603;0.678262;0.673611;0.664917;0.663970;0.663588;0.653823;0.650130;0.646651;0.642563;0.640074;0.637675;0.630602;0.627278;0.621254;0.619875;0.615016;0.619726;0.610715;0.603278;0.606294;0.600366;0.600926;0.598043;0.593023;0.587510;0.585003;0.582167;0.580514;0.577561;0.574057;0.569244;0.573604;0.566836;0.563641;0.562964;0.556835;0.556113;0.555906;0.549565;0.550672;0.547411;0.548549;0.547408;0.545992;0.551017;0.539180;0.537553;0.538444;0.536702;0.528210;0.532897;0.533444;0.528411;0.527380;0.527884;0.529971;0.525554;0.524337;0.520536;0.524221;0.516353;0.516343;0.515805;0.517055;0.516113;0.515506;0.514115;0.511799;0.510249;0.512981;0.512101;0.512037;0.511265;0.510868;0.510069
0.511187;0.504950;0.510202;0.504981;0.500454;0.511058;0.508032;0.511334;0.513899;0.517692;0.517402;0.512283;0.514898;0.517785;0.518968;0.515582;0.520427;0.520136;0.522149;0.522203;0.525152;0.521332;0.532204;0.531688;0.529659;0.530976;0.532127;0.537640;0.536732;0.534455;0.544211;0.542028;0.551005;0.545578;0.553140;0.551853;0.553268;0.557595;0.560388;0.562990;0.565858;0.566830;0.572013;0.573752;0.578187;0.585630;0.584989;0.589491;0.592776;0.592811;0.597634;0.606819;0.608421;0.613825;0.618295;0.625338;0.624065;0.629641;0.630936;0.639773;0.641696;0.648841;0.651701;0.656169;0.661328;0.669960;0.673219;0.673150;0.679647;0.685818;0.694967;0.699233;0.701791;0.698275;0.712495;0.716730;0.722349;0.730000;0.729920;0.737296;0.740822;0.746633;0.750159;0.753713;0.762376;0.764118;0.770657;0.774035;0.779805;0.787182;0.792647;0.797888;0.795325;0.804857;0.808248;0.815134;0.814655;0.819577;0.826419;0.831277;0.833681;0.829707;0.837697;0.839850;0.844764;0.845279;0.849002;0.850472;0.853133;0.854169;0.854653;0.855130;0.856168;0.856834;0.852495;0.857079;0.851757;0.855791;0.848160;0.850379;0.847723;0.843368;0.842252;0.836558;0.832666;0.833321;0.822429;0.819804;0.815383;0.813627;0.807495;0.799640;0.792867;0.788777;0.778247;0.778101;0.766088;0.757806;0.754571;0.745160;0.738638;0.730668;0.722825;0.713575;0.707899;0.701679;0.695085;0.688635;0.676390;0.673891;0.666118;0.656985;0.650517;0.643644;0.637293;0.634488;0.621569;0.619137;0.614608;0.605815;0.598437;0.591667;0.591755;0.587711;0.586641;0.576278;0.572180;0.569659;0.566681;0.560334;0.558683;0.555090;0.548052;0.549678;0.545685;0.543954;0.541787;0.534474;0.530153;0.531300;0.526384;0.529951;0.525156;0.519844;0.513714;0.523045;0.517203;0.520091;0.515727;0.517395;0.511066;0.506814;0.510221;0.511369;0.508633;0.506732;0.510387;0.506314;0.508081;0.505059
0.505778;0.508467;0.506519;0.507274;0.512059;0.505736;0.509335;0.509379;0.508617;0.509001;0.509782;0.513706;0.508870;0.512235;0.514922;0.518023;0.519751;0.516427;0.521289;0.522551;0.524594;0.525881;0.531159;0.526421;0.525546;0.530260;0.534186;0.530494;0.533416;0.539876;0.539266;0.544063;0.550053;0.550640;0.553866;0.555220;0.556675;0.559420;0.560095;0.564587;0.567069;0.570449;0.576900;0.575331;0.584115;0.585863;0.593452;0.592162;0.599158;0.599936;0.606505;0.616753;0.619844;0.622560;0.624547;0.625993;0.633178;0.638046;0.645416;0.651444;0.652721;0.651192;0.661673;0.662819;0.673044;0.667334;0.678628;0.682094;0.686825;0.693201;0.693528;0.700632;0.698600;0.703888;0.709436;0.708819;0.713215;0.717080;0.718018;0.719439;0.722690;0.726373;0.729870;0.731655;0.731065;0.733159;0.733829;0.731917;0.731181;0.738772;0.736693;0.735172;0.734698;0.734744;0.738669;0.737968;0.735528;0.738860;0.734551;0.734042;0.735572;0.733584;0.734993;0.735198;0.736220;0.731876;0.731679;0.731678;0.734077;0.732812;0.731658;0.730036;0.728704;0.730331;0.729262;0.730346;0.725912;0.728763;0.729444;0.730111;0.727256;0.727983;0.728507;0.729272;0.726556;0.725779;0.721285;0.729348;0.724813;0.729035;0.728451;0.719592;0.727401;0.726894;0.723148;0.725567;0.725211;0.726110;0.724242;0.724910;0.723326;0.727599;0.723950;0.721340;0.720104;0.726502;0.718982;0.724532;0.720660;0.723171;0.719447;0.718008;0.717904;0.711768;0.713000;0.713421;0.714015;0.705515;0.703852;0.704675;0.698718;0.698389;0.695483;0.695580;0.688861;0.685378;0.682167;0.679429;0.675835;0.671997;0.670162;0.660276;0.659710;0.654150;0.650343;0.648719;0.633788;0.629825;0.631287;0.622532;0.620157;0.618524;0.609260;0.601102;0.601019;0.597309;0.594073;0.588437;0.583750;0.581294;0.572616;0.574404;0.569789;0.570100;0.558105;0.559836;0.553085;0.548990;0.548059;0.543457
0.511598;0.515622;0.514959;0.514462;0.514182;0.513290;0.512305;0.512518;0.516017;0.516659;0.520535;0.523101;0.521578;0.522058;0.520670;0.525475;0.525786;0.525281;0.526563;0.527253;0.528459;0.532024;0.530111;0.531591;0.530058;0.536240;0.538319;0.535285;0.534556;0.535865;0.543394;0.542076;0.542537;0.541691;0.543133;0.549206;0.544451;0.548795;0.553211;0.547563;0.548341;0.549829;0.551509;0.554786;0.554918;0.556297;0.553974;0.561989;0.559810;0.562477;0.563492;0.561615;0.563958;0.564602;0.562526;0.564050;0.568603;0.570361;0.569909;0.575690;0.572399;0.572401;0.572734;0.581049;0.577994;0.581878;0.583630;0.584722;0.582526;0.588483;0.593354;0.593068;0.596538;0.598583;0.597866;0.604295;0.605981;0.609851;0.611303;0.614759;0.622033;0.617199;0.620939;0.622080;0.632174;0.631006;0.634502;0.645019;0.641672;0.653565;0.652948;0.657254;0.661866;0.659498;0.661425;0.670139;0.677157;0.681643;0.684157;0.686955;0.699366;0.701547;0.695585;0.706097;0.709355;0.714840;0.719998;0.725161;0.722074;0.724273;0.733340;0.737227;0.738087;0.747189;0.749467;0.753155;0.757623;0.758217;0.762494;0.764269;0.764017;0.762041;0.773033;0.773461;0.776142;0.774502;0.776935;0.780608;0.776843;0.781607;0.780803;0.782071;0.780292;0.786241;0.783260;0.784973;0.778974;0.787323;0.785214;0.786281;0.785444;0.780803;0.784193;0.785272;0.781786;0.778438;0.776926;0.772135;0.774938;0.770682;0.771917;0.772101;0.767571;0.766371;0.762783;0.761163;0.754401;0.751458;0.749433;0.750223;0.745127;0.738326;0.733899;0.727573;0.723147;0.719244;0.716799;0.705237;0.705745;0.694550;0.691136;0.687688;0.681559;0.679906;0.672948;0.669102;0.657455;0.657906;0.648303;0.644902;0.637724;0.629553;0.625182;0.621795;0.610509;0.605309;0.598665;0.600036;0.594220;0.580873;0.583041;0.574851;0.567496;0.561557;0.557436;0.551718;0.549388;0.543379;0.541057;0.536842
0.523090;0.530985;0.528868;0.532425;0.530294;0.536928;0.532850;0.534032;0.537343;0.536956;0.539543;0.549559;0.547561;0.552328;0.556969;0.557742;0.556980;0.560406;0.567698;0.563192;0.564997;0.572602;0.567306;0.577218;0.573122;0.573858;0.580317;0.581732;0.583443;0.587535;0.588765;0.593239;0.593843;0.591944;0.591508;0.595902;0.598311;0.598357;0.597038;0.602682;0.602304;0.603995;0.603898;0.606910;0.605494;0.609109;0.609775;0.607596;0.606055;0.605407;0.605978;0.602979;0.605279;0.608565;0.599793;0.601814;0.605542;0.602779;0.602596;0.600828;0.601611;0.600321;0.596646;0.592232;0.594240;0.595374;0.595763;0.589180;0.591684;0.590183;0.591777;0.587064;0.589164;0.582256;0.589726;0.582025;0.584454;0.581887;0.579370;0.579514;0.572161;0.570605;0.578833;0.574817;0.571589;0.572794;0.567693;0.567526;0.570370;0.566768;0.566872;0.571457;0.569934;0.566482;0.566991;0.565109;0.568363;0.569745;0.569614;0.573708;0.567106;0.562969;0.569765;0.564654;0.574686;0.573744;0.573823;0.575448;0.577562;0.577490;0.584548;0.590836;0.593223;0.597218;0.597899;0.604468;0.608745;0.609726;0.614299;0.622977;0.624438;0.632760;0.640016;0.643809;0.652866;0.656545;0.664663;0.669771;0.678773;0.688774;0.693531;0.701641;0.710136;0.712553;0.723062;0.731403;0.743901;0.746657;0.755399;0.763983;0.774769;0.781673;0.793857;0.795305;0.802547;0.810050;0.819498;0.822477;0.826355;0.832263;0.835313;0.845474;0.845346;0.846985;0.850383;0.855495;0.853831;0.855543;0.859793;0.857060;0.859775;0.860705;0.857402;0.857448;0.851604;0.849910;0.843642;0.839152;0.837009;0.832063;0.823275;0.817808;0.810582;0.802651;0.802173;0.795682;0.779754;0.774518;0.767266;0.757438;0.751692;0.744767;0.736977;0.725267;0.719422;0.709061;0.701428;0.691127;0.680876;0.677009;0.664077;0.656103;0.647806;0.644586;0.634632;0.631215;0.619641;0.610106;0.606183;0.601404
0.515175;0.511419;0.517899;0.513796;0.521470;0.518239;0.522795;0.520171;0.522423;0.526182;0.528876;0.530027;0.532605;0.533935;0.536431;0.533973;0.538817;0.536329;0.540671;0.544210;0.545603;0.549689;0.549215;0.553116;0.556214;0.563040;0.561899;0.563842;0.562570;0.569582;0.575421;0.577647;0.578392;0.586950;0.587733;0.585364;0.596118;0.592054;0.601428;0.606573;0.609274;0.613307;0.617819;0.620418;0.626110;0.635360;0.637087;0.641452;0.648384;0.647663;0.656008;0.660825;0.666650;0.671785;0.676945;0.682266;0.687600;0.693806;0.696798;0.699429;0.713968;0.712851;0.720242;0.718925;0.727711;0.735638;0.737617;0.738379;0.749444;0.753580;0.756695;0.759903;0.760352;0.772197;0.771459;0.775390;0.780791;0.781650;0.785391;0.786388;0.792762;0.790918;0.795765;0.795177;0.796696;0.801452;0.799998;0.806126;0.800727;0.801315;0.806788;0.808314;0.801885;0.800914;0.805698;0.802579;0.808883;0.802876;0.799946;0.801617;0.801905;0.798031;0.796331;0.792580;0.796639;0.793760;0.796579;0.791127;0.786512;0.782940;0.784052;0.779587;0.776582;0.775656;0.773208;0.766859;0.765997;0.764620;0.761700;0.758285;0.751644;0.753021;0.745114;0.740539;0.738330;0.727714;0.725891;0.725829;0.717658;0.719176;0.712459;0.708217;0.702783;0.691906;0.689541;0.687282;0.681193;0.676882;0.674610;0.668348;0.660632;0.655837;0.652682;0.648320;0.640120;0.636775;0.631129;0.624735;0.622656;0.616247;0.617291;0.610280;0.606860;0.604133;0.598813;0.592166;0.590919;0.586263;0.578637;0.577822;0.573782;0.579587;0.569635;0.564901;0.563089;0.560477;0.555523;0.555206;0.549761;0.544388;0.541562;0.542701;0.539051;0.535523;0.534608;0.531416;0.528750;0.524099;0.524285;0.526712;0.524290;0.522161;0.511890;0.515648;0.517541;0.516965;0.509207;0.506154;0.509119;0.506649;0.501480;0.506437;0.501157;0.501682;0.504303;0.497391;0.500065;0.501491;0.494711;0.491661
0.558464;0.560272;0.563117;0.568617;0.570293;0.579574;0.579095;0.583823;0.591751;0.597798;0.605680;0.608809;0.614680;0.612421;0.621802;0.627899;0.629756;0.639679;0.649257;0.644176;0.650654;0.655062;0.665138;0.667989;0.674567;0.676114;0.678605;0.686295;0.692790;0.695445;0.693949;0.704509;0.704076;0.709768;0.710467;0.710387;0.717245;0.717167;0.718371;0.714844;0.723028;0.723923;0.728565;0.731057;0.727646;0.729398;0.727089;0.726038;0.728166;0.722186;0.726828;0.719235;0.723449;0.724768;0.720962;0.716456;0.713840;0.712468;0.711151;0.705305;0.705061;0.706278;0.703771;0.698041;0.694929;0.690539;0.692029;0.686085;0.688609;0.686565;0.682709;0.683083;0.680120;0.683650;0.677401;0.676660;0.674097;0.673075;0.668895;0.668769;0.668910;0.673015;0.669464;0.674065;0.669447;0.670919;0.673522;0.670778;0.671156;0.669540;0.676415;0.675356;0.678732;0.678674;0.667663;0.679534;0.681756;0.678651;0.683011;0.684143;0.684600;0.689454;0.691912;0.691781;0.690210;0.694473;0.700065;0.697961;0.700742;0.700086;0.699577;0.701872;0.704541;0.705931;0.706260;0.702042;0.703917;0.704969;0.703038;0.707640;0.708300;0.707242;0.705216;0.703190;0.709096;0.705867;0.698495;0.694305;0.702142;0.697500;0.693423;0.690783;0.693531;0.687792;0.684134;0.686018;0.688843;0.679631;0.677111;0.677137;0.673803;0.671688;0.662754;0.665605;0.658892;0.658704;0.653731;0.653901;0.648244;0.647281;0.639303;0.637772;0.637888;0.634983;0.623637;0.627486;0.624768;0.621286;0.617363;0.612670;0.614719;0.607639;0.601010;0.603264;0.597969;0.595880;0.595457;0.584751;0.593061;0.586150;0.579823;0.582747;0.581390;0.576291;0.569665;0.571436;0.565657;0.564473;0.560975;0.558730;0.560412;0.556297;0.553160;0.552671;0.552254;0.543603;0.544024;0.542567;0.543090;0.537396;0.533043;0.535456;0.530719;0.533573;0.527190;0.532366;0.525333;0.522443;0.526093;0.522531
0.501454;0.504664;0.506152;0.504640;0.507419;0.506145;0.507213;0.506657;0.505553;0.506493;0.505370;0.511416;0.509940;0.509453;0.505298;0.507388;0.513041;0.513788;0.510993;0.516170;0.514775;0.512323;0.516413;0.516685;0.518786;0.519967;0.518100;0.520064;0.525057;0.520936;0.527272;0.524586;0.529326;0.529020;0.532915;0.533231;0.533854;0.536975;0.536883;0.535053;0.535418;0.540547;0.549441;0.544899;0.549581;0.549805;0.553883;0.554196;0.555229;0.554711;0.560261;0.568438;0.567266;0.566452;0.568386;0.578639;0.579851;0.586106;0.585413;0.582656;0.587303;0.585399;0.594575;0.597588;0.599261;0.607796;0.605595;0.614022;0.618554;0.624527;0.624125;0.631169;0.630985;0.634799;0.639521;0.646302;0.650935;0.653127;0.660598;0.657989;0.667511;0.671767;0.672736;0.674337;0.683438;0.685564;0.691634;0.698560;0.698554;0.710317;0.712336;0.717303;0.717843;0.721092;0.729466;0.737188;0.746690;0.744044;0.747032;0.753632;0.757347;0.764111;0.770471;0.772094;0.774751;0.778179;0.782233;0.789906;0.784329;0.796332;0.798265;0.801006;0.800689;0.802700;0.807513;0.809893;0.810930;0.814220;0.815763;0.813921;0.821882;0.820194;0.820023;0.817815;0.817580;0.818796;0.822422;0.816144;0.818258;0.815246;0.815198;0.812465;0.810996;0.808472;0.807232;0.806142;0.803306;0.796504;0.793541;0.792858;0.790668;0.786247;0.782671;0.779762;0.775231;0.771085;0.770342;0.765135;0.759868;0.757251;0.756202;0.751136;0.752475;0.746222;0.736128;0.735177;0.732443;0.725636;0.718543;0.719342;0.710399;0.709031;0.704358;0.699718;0.693533;0.688760;0.680521;0.678257;0.673256;0.664290;0.662915;0.659471;0.650034;0.644235;0.642355;0.640381;0.635024;0.624926;0.624531;0.619739;0.614271;0.608686;0.606626;0.600424;0.591021;0.595449;0.590740;0.583710;0.581476;0.576381;0.570380;0.565984;0.564909;0.559868;0.554499;0.553713;0.547948;0.548137;0.545532;0.539598
0.543402;0.545669;0.543766;0.551254;0.555050;0.554908;0.562492;0.566996;0.569385;0.575133;0.574785;0.584370;0.582633;0.584197;0.591408;0.594268;0.590893;0.604400;0.609209;0.616613;0.615185;0.619807;0.621952;0.627380;0.635083;0.642642;0.641471;0.641193;0.644085;0.650979;0.651397;0.659379;0.661852;0.666139;0.669769;0.675924;0.675579;0.678479;0.682721;0.677743;0.684487;0.689774;0.687288;0.688193;0.696784;0.692175;0.695019;0.702029;0.696770;0.702247;0.702090;0.696853;0.698460;0.699305;0.703481;0.702571;0.707059;0.704883;0.704929;0.702383;0.700328;0.702390;0.706116;0.702025;0.705991;0.702243;0.701482;0.701713;0.699201;0.701796;0.701084;0.703645;0.702452;0.698361;0.701114;0.695356;0.700091;0.701132;0.695402;0.696272;0.697981;0.695040;0.693741;0.697065;0.691241;0.693932;0.691637;0.691630;0.687735;0.686714;0.685957;0.688849;0.684022;0.687318;0.687898;0.687852;0.684620;0.683390;0.689152;0.682747;0.685843;0.679293;0.681377;0.679796;0.682866;0.681467;0.679255;0.675984;0.680057;0.678291;0.677216;0.681133;0.677779;0.675185;0.678854;0.675523;0.678926;0.681368;0.680126;0.673731;0.677357;0.681363;0.675282;0.680657;0.677298;0.673789;0.678013;0.678684;0.672751;0.675665;0.672401;0.671790;0.677410;0.678198;0.675380;0.670110;0.670903;0.671959;0.674853;0.673398;0.664732;0.671816;0.672206;0.672085;0.668864;0.668440;0.669692;0.668586;0.665498;0.665922;0.662977;0.663972;0.664714;0.664140;0.657893;0.653064;0.654086;0.654508;0.655552;0.644261;0.648102;0.644860;0.648437;0.638206;0.640679;0.636341;0.635793;0.631088;0.630448;0.624244;0.623117;0.618775;0.615248;0.607407;0.605328;0.608193;0.606216;0.601529;0.596929;0.595672;0.584164;0.583817;0.580494;0.580951;0.574662;0.573001;0.568406;0.566595;0.566078;0.559549;0.558765;0.559531;0.547916;0.543365;0.548870;0.542459;0.544874;0.537741;0.533143;0.530619
0.512411;0.510421;0.512203;0.514679;0.520035;0.520816;0.516380;0.517693;0.521407;0.516174;0.524321;0.525043;0.530156;0.529295;0.531905;0.533840;0.535214;0.534582;0.538983;0.536485;0.539533;0.544671;0.547180;0.552153;0.557739;0.559458;0.561758;0.565296;0.565987;0.570484;0.564900;0.575675;0.581862;0.586023;0.590139;0.592109;0.595660;0.602653;0.611488;0.611894;0.615453;0.618128;0.624439;0.631091;0.641870;0.641046;0.646325;0.650516;0.659696;0.666125;0.673883;0.678343;0.685346;0.693801;0.694796;0.698533;0.707324;0.713125;0.719690;0.726150;0.732366;0.734393;0.741747;0.750337;0.753408;0.758807;0.761145;0.768218;0.771175;0.778125;0.774156;0.785329;0.783164;0.788893;0.796917;0.797213;0.795481;0.796663;0.799961;0.796191;0.795100;0.796589;0.802212;0.802543;0.794334;0.798688;0.796364;0.790839;0.794128;0.786842;0.786632;0.782225;0.779272;0.771250;0.772872;0.762126;0.759631;0.751706;0.749336;0.746049;0.740929;0.739666;0.729188;0.720349;0.723496;0.716358;0.713751;0.704020;0.701949;0.696404;0.692881;0.689197;0.686686;0.684362;0.681807;0.677719;0.674761;0.667932;0.668822;0.665523;0.662374;0.660255;0.656270;0.657239;0.651368;0.652818;0.654989;0.652102;0.646419;0.645346;0.648329;0.652150;0.648190;0.652235;0.650476;0.652054;0.650741;0.644544;0.655090;0.655411;0.658572;0.654720;0.653478;0.658435;0.658569;0.660699;0.653897;0.659044;0.660370;0.654138;0.654570;0.661100;0.665284;0.662786;0.662307;0.661480;0.659254;0.659779;0.661708;0.656602;0.657969;0.658378;0.657889;0.649959;0.650089;0.649002;0.642114;0.647479;0.644248;0.638231;0.636740;0.633961;0.631260;0.634589;0.628775;0.621304;0.620182;0.613385;0.608428;0.610948;0.605876;0.601492;0.599065;0.595830;0.590450;0.585612;0.587073;0.579007;0.574226;0.571649;0.571004;0.566620;0.560784;0.558436;0.557868;0.550835;0.547368;0.548418;0.547158;0.536635
