partition,sample_id,1100,1105,1110,1115,1120,1125,1130,1135,1140,1145,1150,1155,1160,1165,1170,1175,1180,1185,1190,1195,1200,1205,1210,1215,1220,1225,1230,1235,1240,1245,1250,1255,1260,1265,1270,1275,1280,1285,1290,1295,1301,1306,1311,1316,1321,1326,1331,1336,1341,1346,1351,1356,1361,1366,1371,1376,1381,1386,1391,1396,1401,1406,1411,1416,1421,1426,1431,1436,1441,1446,1451,1456,1461,1466,1471,1476,1481,1486,1491,1496,1502,1507,1512,1517,1522,1527,1532,1537,1542,1547,1552,1557,1562,1567,1572,1577,1582,1587,1592,1597,1602,1607,1612,1617,1622,1627,1632,1637,1642,1647,1652,1657,1662,1667,1672,1677,1682,1687,1692,1697,1703,1708,1713,1718,1723,1728,1733,1738,1743,1748,1753,1758,1763,1768,1773,1778,1783,1788,1793,1798,1803,1808,1813,1818,1823,1828,1833,1838,1843,1848,1853,1858,1863,1868,1873,1878,1883,1888,1893,1898,1904,1909,1914,1919,1924,1929,1934,1939,1944,1949,1954,1959,1964,1969,1974,1979,1984,1989,1994,1999,2004,2009,2014,2019,2024,2029,2034,2039,2044,2049,2054,2059,2064,2069,2074,2079,2084,2089,2094,2100,target
train,sample_0000,0.590646490734269,0.5972814495195166,0.5998332828024695,0.6098257102097266,0.6150468744376151,0.6269599715703257,0.6307182140917136,0.6367102425272368,0.6426175971380657,0.6515191888136453,0.6570135101104266,0.6688005107407857,0.6751649951205426,0.6780357199479256,0.6855022590928912,0.696297703319585,0.707935164051149,0.7142854718202102,0.7194247001758398,0.7256420069364977,0.7385183582984933,0.7390313723016115,0.7519345027733484,0.761292623042042,0.7639149407800918,0.7744201755989693,0.7876273464972477,0.7902384899905219,0.7930155594775159,0.8037341143177932,0.8093804996972016,0.8121810789140462,0.8130938940724571,0.8208415315589876,0.8284473243776594,0.8278241211984737,0.8268145048554706,0.8320144342540532,0.8393668617620562,0.835169634175811,0.8395708933227626,0.8398950008726452,0.8424729427734083,0.8411870716682539,0.8395647889171001,0.8403269812574012,0.8371405485472044,0.84150374025116,0.83900493823617,0.8306082672385797,0.8273214668696283,0.8268567340375568,0.8237427819001206,0.8191614324794216,0.81596290402888,0.8063111600892708,0.8028514573193954,0.7967624481369164,0.7933743622254465,0.7873325081795567,0.7789667855695416,0.7767363132386813,0.7694068242679395,0.7628996139224218,0.7558325707847497,0.7541143701059241,0.7444194450429634,0.7410209999534811,0.7374849986505893,0.7306993655449998,0.7234479387995187,0.7175336561068797,0.708811402533167,0.7035284085481801,0.6909250612743808,0.6905955253580994,0.6851504151506879,0.6775653008909973,0.6690768991062213,0.6625868108952442,0.6642461607659453,0.6576092697633349,0.6489669509047882,0.6451494616861825,0.6382332919896181,0.6402535413059958,0.6324569699437215,0.629300373025836,0.6253530997682943,0.619123704592333,0.6153292146471704,0.6090457063154252,0.6084811817886855,0.6026958113250431,0.6024247466323356,0.5988026869860414,0.5934132618046991,0.5976701481362783,0.5873064757849092,0.5880748788071882,0.5798018738851753,0.5812827167468453,0.5764488130864306,0.5799724566390938,0.5738902154366148,0.5689491369873821,0.5690126649596826,0.5699104372322856,0.5672565706332471,0.5727249303348032,0.5658039928314099,0.5647713506679034,0.5649958917079541,0.5653696678390867,0.5657310240898651,0.5671707470656037,0.5617579942897819,0.5648863109861275,0.5608841592988925,0.5609438605945387,0.5625731804574933,0.5623899730369367,0.5637207715341227,0.5671946581716757,0.5673062134940838,0.5702425792308571,0.5690922711141797,0.5676187921426635,0.5681182147639603,0.5779605665365515,0.5808526719154482,0.5735644270654902,0.5820391392116622,0.5803887705037589,0.5848781881130041,0.5843122513924185,0.5908400941281208,0.584161968549701,0.5877165022326867,0.5908617610467553,0.5921533694670732,0.5962170141532454,0.5962074285930316,0.5972686578309508,0.60203873646159,0.6000496226922993,0.600505140617483,0.6013762169092433,0.6050915546023106,0.606340219284192,0.6072870499486605,0.607893861993163,0.6130079777210357,0.6058443604166421,0.6090253210621931,0.6100541754541111,0.6064337554059611,0.6091902419383115,0.60920541682346,0.6105248669814994,0.6139671083378926,0.6102387515743704,0.6084372137723071,0.6039309945749248,0.6054498309226625,0.6051997446493218,0.6091675163398574,0.6094884442550769,0.6057867109925443,0.6032823347119688,0.6005305292945914,0.5977426860520121,0.6039632710937992,0.5955184983091757,0.5932417809633613,0.5878328879836251,0.5912919427003948,0.5844317911302119,0.5854884706832775,0.5827455495516294,0.5796251953808511,0.5738235316282188,0.5765610030049856,0.5727851177410039,0.5684010351731095,0.5698864275559219,0.567597632012617,0.5678452439387349,0.557282091054241,0.5591980079992216,0.5502792162278471,0.5562378027071819,0.5487388707725152,0.5472772620645876,0.5499418954688639,0.5475107610380621,0.5479625925096582,0.5388751184617185,0.5369336292708637,0.5396207645076808,37.26897843221182
train,sample_0001,0.4997202415559119,0.506147787978974,0.5081708299740122,0.5067957552900567,0.5062211667383368,0.5023888606458679,0.5055324248123133,0.5061596246364286,0.5019291482515763,0.5077151630249971,0.5050944164140996,0.5055289041380873,0.5140975428317898,0.510084669079759,0.5099315748998143,0.5040474310539371,0.5101447372905796,0.5059860866946859,0.5147601085827352,0.5115638162516832,0.5084846394997841,0.511715407033176,0.5139151876492826,0.5115458368057523,0.5152440066486037,0.5157041484024705,0.5156374263382004,0.5185503629761157,0.5180120091402034,0.5193403611582872,0.5187805735789007,0.5158796743481313,0.5142807975299525,0.5178684185747339,0.517372256660465,0.5174182240578744,0.5244081385109438,0.5219527410485112,0.5239836417105899,0.5220526922786749,0.519065642581906,0.5228342651803456,0.5278294649499536,0.5278018218997816,0.5248219008933886,0.5319634985053318,0.5269788311683118,0.5282060532244172,0.5280139675490062,0.5328652799053093,0.5344988183262518,0.5364482559574921,0.5328805503091989,0.5351384295562981,0.537438035777081,0.5369587929435986,0.5404954108806864,0.5414655080680956,0.5435960745241544,0.5382352691716332,0.5420651335609091,0.5448738678754002,0.5415512461265265,0.5514411497360545,0.5561127996717068,0.5528767822800449,0.5591406646390544,0.5576685648709149,0.5606628786508808,0.5641837233714019,0.5683964030935444,0.571587278557742,0.5684639107397617,0.5758123572795525,0.5819842406681126,0.5837108225033527,0.5827284309665965,0.5819435857718083,0.5933784259485374,0.5984707406796008,0.5943578257630063,0.5948426450601859,0.6090249580298884,0.6131545064552746,0.6149321976770861,0.617645631872727,0.6236431039969811,0.6260986533756224,0.6334562139215515,0.6401401302856782,0.6425432983717144,0.6474908049789208,0.6510373957387913,0.6564346953127688,0.6651274925534164,0.6643928512023662,0.6728806189822178,0.6763158051312136,0.6845777939730295,0.689461690259506,0.6977563013149395,0.701272198568569,0.7048370229245522,0.7142774534340894,0.714621481817483,0.7240886454542209,0.7220937547952059,0.7329444841339433,0.7349066710337134,0.7455975711407314,0.7478078018787494,0.7477411081404475,0.7578642377244608,0.765008774325168,0.7701802370992021,0.7702449626901069,0.7744217210201034,0.7754167678992506,0.7863382444872982,0.7884164951566082,0.7918620619716374,0.7946140686489577,0.8020279514891264,0.8051564772628543,0.803863227424768,0.8095034817144895,0.8147698131935173,0.8113747137865599,0.8178594844376179,0.8212819297987215,0.822035223594546,0.8218203173408383,0.8242648647918038,0.8305033269001294,0.825459219299937,0.8350799522397261,0.8327570173690613,0.8347360008421303,0.8324198735347557,0.8347291985334455,0.8339993172234933,0.8325930136689794,0.8343644065036062,0.8349008766381837,0.8376763408679997,0.8365685588950449,0.8336905949548138,0.8343508205519046,0.8312598251566419,0.827992356679588,0.8277689548148395,0.8318668834385926,0.8271287884943612,0.8232510981586867,0.8229493231113152,0.8155130398552521,0.8143686689323905,0.8147639952709342,0.8116464909868559,0.8051259954484773,0.8038202002246502,0.7940024151184754,0.7925859344858446,0.7882308479796175,0.784829887608858,0.7816830965197268,0.7734428244144294,0.7687523679443778,0.7619504695333675,0.7573566373404965,0.7475002745213342,0.7447360466757408,0.7403085801630335,0.7268078431274198,0.7223053508272345,0.7236673243740517,0.7137763476850024,0.7055170043611074,0.6994662791185015,0.6935092203922157,0.6851755862474312,0.6752967753799523,0.6714801993537882,0.6657678480105497,0.6603166294066155,0.6487260290406196,0.6455160254819146,0.6376767222429887,0.6288776311062454,0.6296542230327159,0.6178798864783192,0.6132929824823568,0.6053103591666678,0.6037908238149009,0.5931970530894991,0.5909432190737847,0.5890498828598918,0.5800293631812737,0.5760346873851356,0.57222819959931,5.0
train,sample_0002,0.5317682976205632,0.5340072539858071,0.5384092799291218,0.5369341802257989,0.5354711884631478,0.5428417614176487,0.5423325800849641,0.5470257275623066,0.5515162297048823,0.5533923704235402,0.5573104288411443,0.557850732304954,0.5604456132648165,0.5641104072249709,0.5683136085633067,0.5757804873336563,0.5716871892343517,0.5735990297565975,0.5838312937102669,0.5793241206745708,0.581345614685861,0.5906470445974805,0.5957442405491506,0.5957648037570252,0.5992922133955308,0.6042114396888787,0.6042770141027606,0.6139974954465519,0.6074030177975553,0.6177098968751676,0.6187646654800634,0.6258936355568807,0.626267518552271,0.6331042386159873,0.6358663020180587,0.6391890463955721,0.6427868483719843,0.6461265380766527,0.6424667809348066,0.6521033552012285,0.6566519375409725,0.6541828941776833,0.6625816621982917,0.6648873664611619,0.6659083730906351,0.6671479147290711,0.6681973895398542,0.6758800224253011,0.6738301419010204,0.6810213647548942,0.6828911263837936,0.6837327909542897,0.6880776265023746,0.6934667587111573,0.6928089937085704,0.6906905052601519,0.6959409409008974,0.7009550069304173,0.7011979014125279,0.7035104189051603,0.7130407944117776,0.7078825214593887,0.7059758993530804,0.7118545108480735,0.7149018007215775,0.7106386708555554,0.7197908542025816,0.7250012690298766,0.7245777585808123,0.727028358938386,0.7250471684457693,0.7294901502049349,0.7323152669831393,0.7355268472114476,0.737017896146989,0.7340025411735841,0.7398773384414852,0.744195315965597,0.7404583143796653,0.744752025398495,0.7478247284725583,0.748771817716942,0.7503300665556272,0.7507860075974415,0.752672187130818,0.7555575678866755,0.754643048992014,0.7578577180832418,0.7596639252908676,0.7550318307745432,0.7600376570192433,0.7595286186101183,0.7638911137617473,0.76178387133608,0.7680880147567379,0.7693305527257943,0.7663954483227344,0.7658559345066331,0.7637993688574153,0.7664743752698611,0.7646828370317189,0.7661477615858224,0.7684697174212972,0.7678288255378782,0.7711984479289185,0.7667150895022884,0.7690307501759268,0.7684840222418319,0.76660400095466,0.7706867617814606,0.763128480257306,0.7655020562042061,0.7661144196959662,0.7669575692579055,0.7603363636446356,0.7644715903069037,0.7556839077599156,0.7617055663194194,0.7504578817889334,0.7543675845367956,0.7524306574842645,0.7468401958333186,0.7451790107014533,0.7431275160680811,0.7385989741440451,0.7386738817148666,0.7384979224867999,0.7302945278988788,0.7254033763151976,0.7253786282091403,0.7235607603306154,0.7177241319402918,0.7070969603488542,0.7106997165934948,0.7048901591108265,0.705120565256802,0.6931256147972393,0.6883334380638161,0.6888674765107154,0.6808163899093551,0.6761683362909078,0.6714026516533321,0.6662280217965291,0.6628753163322227,0.6546550110122804,0.6586354920833112,0.6469564040339626,0.6485391118887593,0.6397039976221899,0.6368274507682019,0.6318673111765791,0.626156076906616,0.6302604248300173,0.6162082066945355,0.6195363357322886,0.6097127022845601,0.6076158286793162,0.6034444171759805,0.600614895680911,0.5972500753658694,0.5913608134160265,0.5890382154921374,0.5891986681171646,0.5823564557967403,0.5790799209859305,0.578603245232215,0.5730353679503866,0.5720862318312339,0.5678704504876833,0.5700639190141863,0.5626472817641142,0.5595485208646545,0.5585209024351394,0.5523257255071465,0.5517809433612364,0.5476283229700761,0.5468904513005932,0.5459118884931067,0.5403043014974177,0.5419573784112044,0.5394220264814503,0.5390453232829799,0.5359673370227678,0.5331456284721975,0.5312667007424927,0.5307709056580447,0.5314146949089326,0.5307206481116085,0.5245915083629719,0.5245757751837964,0.5236273892264727,0.5222964896193767,0.5250095028855207,0.521443905836691,0.5163882089129596,0.5225062008545721,0.5227253268128425,0.5155596190782293,0.518346796396062,0.5140795455748228,22.34211636346233
train,sample_0003,0.5135402618469512,0.514381944083009,0.5153449448090462,0.5190532105166878,0.5221521501532463,0.5231732901342457,0.5217186828058087,0.5258288000443616,0.5220753065734814,0.5277588678660045,0.5264963197032501,0.5325740269805543,0.5285898613853659,0.5324154585638328,0.5318433648952836,0.5327728185529099,0.5408665246911828,0.5403326528660461,0.5387256045648386,0.5437624813243466,0.5406112694645259,0.5481531577587018,0.5496787065899977,0.5538158543646918,0.5488868636223728,0.5556729689483925,0.5580786859289382,0.5623016103106252,0.5618807587855448,0.5624872681783658,0.5645544947584992,0.5667382677133331,0.5736318160294279,0.5808398593924959,0.5784288503619232,0.5855626442280715,0.5772784939544449,0.5856151333434811,0.5851337555344668,0.5955443074351675,0.594343469516883,0.5971393508968447,0.6010333534836542,0.596628141158803,0.6003654782626296,0.6045605607437596,0.608559623477876,0.6096257785395564,0.6116200879046187,0.6187548997129209,0.619322156802829,0.6213482447626377,0.6249310410183841,0.6247633880271389,0.6353905197911902,0.6352232263368081,0.6329629011256694,0.6387718424286233,0.6386530930482465,0.6423387693127535,0.6459663713082027,0.6489360267507582,0.652044414586573,0.6571436008058616,0.6556910074660336,0.6594016952423338,0.6606968547642034,0.6645560163687323,0.664189586175649,0.6655525739206954,0.6708369314539568,0.6708523216537675,0.6773792882106346,0.6825027216642962,0.6767464839968402,0.6741372772838699,0.6770649156718686,0.6827707653302599,0.6847147969191906,0.6847004275215167,0.684307623172875,0.6880747121984967,0.6881786700946688,0.6897579642865074,0.6890722192490146,0.6904490786277864,0.6894823598630974,0.690313436595835,0.6924194701460097,0.6964411187548586,0.6933341365775654,0.6920944772093923,0.6930068818295227,0.69548089160372,0.6955673114667857,0.6973494683090128,0.6961214503525474,0.6974347526284104,0.6951890969637846,0.6965881675606931,0.6972419472641498,0.696458618923621,0.6978030197673134,0.6943110897585304,0.6959392154361772,0.6921543105011563,0.6940759988328467,0.7029252681523892,0.6977051075577363,0.6985086452877644,0.6986199349723439,0.6947989311005083,0.7002843099847488,0.6968263475097504,0.7000419006645617,0.7034261564679901,0.7034800105295851,0.7068121680190723,0.7036420548231044,0.704564937922014,0.7047179816966018,0.7065691801031267,0.7111345150892843,0.7101426064590382,0.7170065627437582,0.713829440609585,0.7124298288014652,0.7194021900865459,0.7196391676559194,0.7196416793901317,0.7211872460869132,0.7268689446253828,0.7256424798129668,0.727244225508163,0.727177231858604,0.7304185303071495,0.7283419533450749,0.7328523613684843,0.7350851564154146,0.7412568889080421,0.7435864587219103,0.7449093940855035,0.7396182112576144,0.7471299126025952,0.7451561871947632,0.743395926377596,0.7534146772890761,0.7502781658039317,0.7537517621938121,0.7472648136183054,0.750911617117135,0.7507740987148059,0.7548739021978197,0.7503677773622124,0.7574410234387063,0.7489248557598337,0.748033316745057,0.7446855285787183,0.7484005807092643,0.74387370498825,0.7390241229964908,0.7384925518398191,0.7400725084292332,0.735880535068746,0.7294067864363452,0.7263959611585639,0.7230022159221494,0.7181891988636835,0.7208627548910455,0.7141810348783317,0.717845372022963,0.702946125149182,0.7013535823068306,0.6961951575245763,0.6903543183741975,0.6858279244967835,0.6814703563589302,0.6735947636098242,0.6662286633500245,0.6603014860778599,0.6550480238219402,0.653395783097283,0.6423410948978311,0.6453841215468225,0.6374702289294286,0.63499195028429,0.6298801972680957,0.6190235619154603,0.6177961960981098,0.612312663080587,0.6067763019668471,0.5999884038072479,0.6007779050506252,0.5970611472771156,0.5863572091089928,0.5858676512465925,0.5835717041824745,0.574449680826416,0.5667803929062183,0.5643123110528764,13.499343681425508
train,sample_0004,0.5518665353587651,0.5554983148493076,0.5561382814335882,0.5611482758542949,0.5627899450195402,0.5729326683871345,0.5692913443368307,0.5784065970166427,0.5877784038259524,0.5811647146988617,0.5903631552751338,0.5935076959621827,0.5993742203638024,0.6018990803631759,0.6079972433041351,0.6169982912921482,0.6190341934023663,0.62762348612777,0.629866626681616,0.6351297459660301,0.6407306378323057,0.6477352734902213,0.6474284124646507,0.6582318569402119,0.6605911747147977,0.6657352085574678,0.6708550103997061,0.6756687153071427,0.6793473152589381,0.6899391872565042,0.6887844452764247,0.6939463991275845,0.6996839795607706,0.7031646334191552,0.7028908203007564,0.7083352683456725,0.713965978935763,0.7197450992898393,0.7244183663800323,0.7240814776953655,0.7283430779863146,0.7333596593531935,0.7363122491756865,0.7362290057661164,0.7334149097442356,0.7403669115061575,0.7463192546917723,0.7461366895331313,0.7453749552239427,0.7492051881736012,0.7545940353696783,0.7455086981092419,0.7524252185573168,0.7574030484233432,0.7552747395910056,0.7568817310791849,0.7521291541224457,0.7596848636199667,0.7587585593613816,0.7604556491058897,0.7580054763120361,0.7630262977927511,0.7594330677327003,0.7588695223849387,0.756668939523154,0.7586394156168028,0.7574183315742218,0.7565767480505434,0.7543403073087703,0.753705048620587,0.753551447972555,0.7436046877498106,0.7511198657375957,0.7451704659635275,0.7492941040380645,0.7468960150943486,0.7364573677375827,0.7351187250719827,0.7356142845167826,0.7337574625287373,0.7290932529027,0.7250052459981793,0.727827616406652,0.7222088363307712,0.7222505840976434,0.7163188282226911,0.7065183220298938,0.7078583462927325,0.7054982286763195,0.6990754227359237,0.694854927279182,0.6916726265905593,0.6883343756288549,0.6826560070268697,0.6765777276524657,0.6795595954573925,0.6679341503621927,0.6707165398361581,0.6616051184700011,0.6601732532794049,0.6574753390842334,0.6480636565242873,0.6522451478629238,0.642583382806076,0.64215955526035,0.638871377306691,0.6313049832823181,0.6298063892301641,0.6285560941297546,0.6275073498326889,0.6162774617628151,0.6157859654962483,0.61714809778378,0.6096515590504241,0.6076618778877104,0.6066148035608836,0.6078496158714897,0.610030833884318,0.6074741527190234,0.5998506683029734,0.5960036258031857,0.6016379094022735,0.6004114545086067,0.5966188250404156,0.5957798117646496,0.5979040658429151,0.5955495601375655,0.601620127331698,0.59935046738994,0.5987471990511817,0.5990696508821737,0.6020185438622829,0.5978887436601984,0.6012222399007018,0.6006253904699916,0.603140414392337,0.6041041222952486,0.6036502576077355,0.6124722610732392,0.6078386026668398,0.6115261570091399,0.6116471313741209,0.6105850493552938,0.6181460032183607,0.6111314911859358,0.6139353210375272,0.6190919431794112,0.6143352826904727,0.6182056503928248,0.6194233975102199,0.6224452608894929,0.6274795804749549,0.6232932784262324,0.6231918933739804,0.6232127182334095,0.6237739370510599,0.6250803530646587,0.6249370527416904,0.6250660933224884,0.6204207551674596,0.6229274828102644,0.622465483835259,0.6241495706860851,0.619284208225912,0.6170675405218412,0.6166797969764364,0.613788093558706,0.6141762828246663,0.6134590744720084,0.6103902760405001,0.6034912071631937,0.6053718926006089,0.6012717918918468,0.5958833718685111,0.5995019099061196,0.5930087636988459,0.5935267924312085,0.5899308538558311,0.5881915030235407,0.5810395720789299,0.5798171858046416,0.5745325882768818,0.5717704247126081,0.5672083252018562,0.5695142681390718,0.5617854203545602,0.5665979910545057,0.5556177523649892,0.5532232629947322,0.5471698800843763,0.5515419545462824,0.5486830061498925,0.545373338516624,0.5413670134106269,0.540024459614931,0.5327781080734159,0.530748096984074,0.5332518440844012,0.5307852262694119,0.527245604779469,27.21096846813136
train,sample_0005,0.5422122777565161,0.5457777215711409,0.5419185860658874,0.5474045624571121,0.5540953996462272,0.5526439095256735,0.5572542859801108,0.5630684962669784,0.5632346346439016,0.5686757487967564,0.5705740870714412,0.578404620982277,0.582660597876894,0.5818785127735272,0.5883184310408073,0.5911071805145532,0.5947650509184341,0.6032130586485819,0.6033563208564893,0.6093914550789282,0.6139833292767157,0.6122343285172527,0.6199657834057353,0.6199028321817509,0.6254223287395075,0.6302951664887055,0.6373186916168934,0.641031540355778,0.6408707566241252,0.6454517051321123,0.6483405615132456,0.6502672320891358,0.659014096441579,0.6589584917449635,0.6606424533611581,0.6598541562278606,0.6663560538738003,0.6651780879145757,0.6707413278360106,0.6724783473844251,0.6694163133854892,0.6737475549036018,0.675194813947518,0.6785763960955264,0.677869657657303,0.6768539494283151,0.678209154515842,0.6784558364815677,0.6813004871747335,0.6769519944222518,0.6845298940173301,0.6841910984652255,0.6810054388110607,0.681503802277067,0.6781338816591825,0.6824371373368501,0.6768315762662965,0.6800624532002739,0.6737490439468703,0.6742197314404621,0.6784711274047537,0.667435447526353,0.6751281081982271,0.6711908528413837,0.6714321088723638,0.6730776806325773,0.666626982490765,0.6628367179307131,0.666950997018384,0.6627511765106194,0.6641671979391769,0.6580879030990981,0.6545964149540247,0.6541536835251053,0.656768038097741,0.6532308171843555,0.6536605838689091,0.6477631723419298,0.646936417047485,0.6482627760423061,0.6453153042370035,0.6444254946260545,0.6404827656739579,0.6376386192063642,0.6364290033389336,0.6368310449043689,0.631683944155401,0.6343543676476056,0.6295718113900688,0.628577998433566,0.6263923936653378,0.6265852017688431,0.6251250327087361,0.6247194007989194,0.6221323612577082,0.6212908597184607,0.620076233617817,0.617262715407564,0.6166799416669526,0.618288207441083,0.6157652093170822,0.614589288129738,0.6139786347026612,0.6173902112216584,0.612919358255337,0.6116893094755768,0.6176466375712609,0.6143918734599245,0.6178556776483561,0.6179535029971076,0.6148861684614985,0.6113100361561792,0.6145572985562149,0.6172290673430375,0.6181189456861294,0.6231804598815751,0.6229981521834582,0.6285378251386025,0.6272819322732223,0.6293233952677216,0.6294462806383463,0.6349716310219561,0.6373478148181733,0.6413863295918988,0.6435115185330107,0.6495504851691201,0.6516660612084726,0.6528250643740121,0.6572509042128986,0.6573444875652085,0.6650628944515057,0.6679720879159676,0.6738586191252354,0.6738360668414827,0.6761684672630496,0.6806270582015347,0.6874770977465567,0.6950664784856817,0.7057955061564138,0.7019856139778047,0.7068757981545792,0.7086688320094844,0.7138411181982545,0.71974657231042,0.7250373281316573,0.7258248012676379,0.727033743285632,0.7276864402829412,0.7325289688147818,0.7369515463339338,0.7386713209279925,0.7421057671434657,0.7462016431254915,0.7451899430974677,0.7473140196130338,0.7444939342725405,0.7435467956034469,0.7475759151967729,0.7490683492139394,0.7459106363986424,0.7469205588331402,0.7450088160017502,0.7438022621227325,0.7398590147173623,0.7366897796116145,0.7362640399624104,0.7363757950003,0.7311842718714923,0.7321676908092616,0.7240083943207853,0.7198887224291629,0.7182084239987594,0.7153636231620246,0.7085028295848875,0.7016711258956034,0.6955325826364425,0.6907821578721303,0.6874844055416051,0.680284078538743,0.6739916431823859,0.66905076263685,0.6711400999662758,0.6588258955055755,0.6569879336494769,0.6511039931610477,0.639934472329489,0.6395011756716079,0.6352462233424333,0.6293054323013922,0.6179619983493809,0.6214296510542775,0.6085169850523855,0.6045739750844954,0.6009933322816073,0.5946888178307013,0.5898670690664513,0.5871772587359504,0.582029712543277,0.5735701576014147,0.5772196315478998,16.5699503183232
train,sample_0006,0.5858735031093638,0.5930099015061072,0.5984884990169144,0.6036559890090591,0.6088613056873166,0.6137083883168615,0.6264996478573266,0.6291314976501369,0.638836022961728,0.6463119745430215,0.6504219224038912,0.6637238182153244,0.6621573479125681,0.6738711897530332,0.6801683950685362,0.6917684325300832,0.6952257205345351,0.7038657577915648,0.7085575117254409,0.7187625154292752,0.723778423540966,0.7363361856940335,0.7385969170904008,0.7487750963125015,0.7587151099427819,0.7606824265000475,0.7676953549374452,0.7771371552441004,0.7863676352856996,0.7902024596452444,0.7911783417389452,0.7998639173356317,0.7965245093369744,0.8036467737419639,0.8063042170938969,0.8119197008520755,0.8122638098333137,0.8152045749809709,0.8180511761427539,0.8258340839556282,0.8211301455933022,0.823529239405361,0.8207775806633935,0.8240839759563579,0.8223332660645352,0.8150682767608123,0.8184394050791952,0.8128993931111832,0.8125386333299276,0.8048333755651248,0.8022441925856605,0.802191189417143,0.8009066324857752,0.7940280165600002,0.7897434452713414,0.7837120256572616,0.7790015808501398,0.7710577130452776,0.7695013831351007,0.7600307946241294,0.754946338540617,0.7516597446908959,0.7449279393616994,0.7392968311876371,0.7323862948696027,0.7268974786411222,0.7190803729279338,0.7141790787181576,0.7062767747572628,0.7020211202217596,0.6996908272331148,0.6910708533356349,0.6857599598577141,0.682507291751124,0.677149890642473,0.669348306330067,0.6665429578610669,0.6628008192667294,0.6564934686479145,0.6501524256068942,0.6488416001193513,0.6405005665469833,0.6469324762351655,0.6410714000455948,0.6348782447073028,0.6301838328464888,0.6322109782512555,0.6277723133757042,0.625860134894949,0.6249510019652382,0.6194907446841116,0.6238149630963544,0.6172315216265793,0.6172167021847714,0.6188709818398177,0.6122717600582003,0.6185028615240784,0.6131978201734742,0.6098891421697672,0.617902167199474,0.6130265789813325,0.6151651588600601,0.619006181861012,0.6144760798847471,0.6142088432234444,0.6131818099798236,0.6167357332492449,0.6169529117953039,0.6162727450941706,0.6191977985228121,0.6130563962076597,0.6150579578558036,0.6140429211169649,0.6174440355359925,0.6167538768320369,0.6205619447970295,0.6194877456227348,0.6158739380105155,0.6228147805108828,0.6187710412014428,0.6140372777039802,0.6202844923317216,0.6197460337815704,0.619131216715373,0.6200782237760866,0.6207983539409418,0.6169879264429801,0.6175849692193159,0.6227369164791161,0.6248490755568132,0.6195588766377902,0.6236795288851829,0.6159167583522981,0.6157169458636911,0.6173216989248345,0.6192656197545386,0.6202457394732777,0.6131364718546071,0.6211256970831008,0.6149569227323775,0.6125393085182607,0.6142361580516089,0.6068382178088465,0.6131435767139843,0.6119882118641322,0.6095875338151305,0.6136973242968612,0.6064846916913696,0.6071461154426185,0.6029612443512824,0.6077523884913858,0.6006998390336382,0.5996980619279163,0.5996123657463582,0.6005256400002588,0.595703637974044,0.5966654366912671,0.5975898784774851,0.5913418796689457,0.5922417689487687,0.5968910300684445,0.5854066647178353,0.5874351605959427,0.5841878755361289,0.5834033081898139,0.5819802537222695,0.581798751755908,0.578849544258428,0.5732996345301462,0.5743063607542143,0.5781884215646566,0.5697409254368865,0.5677477235807835,0.5671425371852368,0.5650200757275509,0.5572934797964907,0.5617510222091036,0.5562055234746921,0.5576998875090423,0.5583454402761507,0.5560085084318682,0.5511917945130822,0.5524539820058761,0.5467033990764866,0.540922643975474,0.5460507249554456,0.5360532577985306,0.5356440469634732,0.5345895060602601,0.5300281677020982,0.5327426282716513,0.5324515630969767,0.530140687725234,0.526692106054888,0.5250283490960044,0.5230179977469765,0.5216253794195588,0.5198573806538282,0.5217589201180768,0.5227255457866032,34.98928609201744
test,sample_0007,0.5562641011908712,0.5685382683159508,0.56923955700714,0.5738487058945422,0.577282179502947,0.5815992203785644,0.5855037975958196,0.5914056682606785,0.5961125784160366,0.598955572090907,0.6110316595901182,0.6177559586326777,0.6181077980396333,0.6262343871639385,0.6233550597856269,0.6343067703007432,0.6432225014873867,0.6449402840528503,0.6581734965162505,0.661274912746475,0.6629641263662271,0.6660793158262989,0.6748515112634215,0.6840363477865649,0.6833305164764554,0.6919062944385548,0.7013975052818614,0.7014486115709119,0.7107954330170979,0.7163782356709015,0.7177977036948768,0.7261510261272953,0.7243015562008274,0.7337832577768081,0.7398316065706011,0.7399961139562373,0.7444132168690858,0.7512107034994433,0.7487964757067992,0.7494666147985418,0.7555849662282408,0.7560113698422068,0.7605549033126843,0.7581892813938411,0.7659706819140593,0.7686842877000446,0.7675985014253169,0.7630574927791964,0.7638363303279962,0.7680902249685799,0.7674312532970324,0.7689232487873312,0.772611611633353,0.7723550982675611,0.7657952887697936,0.7696709910199738,0.7668181545608531,0.7624056461578089,0.7642412958282457,0.7611237588195603,0.7582697090180328,0.7593959340135683,0.7579992068402271,0.7521025371956165,0.7562513863571636,0.7609602143877567,0.7532753815724709,0.7495526040782401,0.7493988712217121,0.7472894710195003,0.7444351497717852,0.7462488131371969,0.7449409305875563,0.7423996273882042,0.7357400934898443,0.7366904256686104,0.7355743785463886,0.7302990846944329,0.7288720949079985,0.7230474028837135,0.7261843965141466,0.7229040240137347,0.7221726514553171,0.7184138266571815,0.7181395284833789,0.7172248665197357,0.7114512275281042,0.7120768022374417,0.7069971946888984,0.7014389478478916,0.7043663812285238,0.7080915278898747,0.6997649099720844,0.6980072852988379,0.6923786560543572,0.7020223833353688,0.6912422347703753,0.6909986189576277,0.691832550377035,0.6868229965471437,0.6868554291484716,0.6823841999196543,0.6796008604911394,0.6819151851729697,0.6746556513004572,0.6777849321522709,0.6719123231042546,0.67382632133663,0.6709273043179023,0.6723406149194365,0.6699107814718273,0.6647824740582038,0.6690371333803172,0.6630817125846955,0.6613881592869542,0.6590738819183853,0.6570344751906273,0.6587788701083026,0.6534365945995115,0.6558590758898091,0.6558964827118127,0.648202777992388,0.6499689813956976,0.6443370007332534,0.6470654556973244,0.6449354238427801,0.6391573235740237,0.6400888962181577,0.6439340466563911,0.6374948840565766,0.6364057450776754,0.633306890551175,0.6324375621342242,0.633065209210547,0.6280737002520935,0.6280246031809633,0.6232709176811506,0.6230924693391228,0.6197590168629796,0.623490376945849,0.6174239565692435,0.6179529500111917,0.6142212532743303,0.6147247348135182,0.6148569360241164,0.6142333095206276,0.6074909917370814,0.6052045957434656,0.6042314300678913,0.5996901556811921,0.602173969227327,0.6016658481798902,0.5966736768699744,0.5987971371213505,0.593393428207495,0.5887433867143587,0.5931107049676823,0.5881202559077613,0.5867953582500542,0.5846623328328578,0.5826417915522872,0.5799077814800678,0.5830298429011921,0.5821945072007428,0.5778139426135995,0.5755218009291898,0.5722476178220088,0.5731717706056357,0.5664033620230798,0.5676029489739469,0.565315858620757,0.5636416936660467,0.5634367845375219,0.5616097840498687,0.5583266899127204,0.5577201521016333,0.5572357703927168,0.551724283342094,0.5531327550598074,0.5501445799550544,0.5486588650438393,0.549690393125237,0.5439826160911327,0.5413602282945893,0.5395862329584524,0.5366114617193309,0.5357530816411017,0.5362754272496606,0.5346483534236537,0.5326411453227866,0.5308007381082489,0.532144134386648,0.5298337828306696,0.5246036562243402,0.523245433436043,0.5304731751394732,0.5258873084420476,0.522180053302911,0.5201778999779365,0.5211828530046416,30.60432021473676
train,sample_0008,0.5806632862401857,0.5800736872002803,0.5871000976505922,0.5934828077954204,0.6046418884556349,0.6044671615268036,0.6144149507750784,0.619802515160545,0.6242850406356468,0.6317914702674874,0.6400904181503324,0.6466477533288365,0.6506267408464718,0.6620811003421162,0.6638812913038973,0.674211638155905,0.6802387076980396,0.6889963319440406,0.6909715545305533,0.703166754393433,0.7094507273753083,0.7154872787609947,0.7246316849499503,0.7325005000040756,0.7367372439022383,0.7427996641394623,0.749320324232892,0.7545641731944193,0.7641713085882865,0.7657868777915682,0.7689193170535232,0.7755641176606091,0.7834382827834323,0.787686773709042,0.7898354991808643,0.7918334298975396,0.7969546143837116,0.7940363170444464,0.8026906082433689,0.8000850686401846,0.8098156381006589,0.807418153006507,0.8110190311831516,0.8113258040097118,0.8069767577053724,0.8094496529385476,0.8055323900895687,0.8099242752968456,0.8085713638007036,0.8056286012251792,0.8012449396262776,0.8047447244340594,0.7964245491166684,0.7973142274807938,0.7936831158788512,0.7875772233662224,0.7845781731711965,0.7830553578098964,0.7772541243966858,0.7762260503370725,0.7738060299192195,0.7659886389344892,0.7621339813197449,0.7593169397804732,0.754984838434624,0.7485445183747974,0.7448722637411289,0.7376939449786185,0.737515839616802,0.7324342732942353,0.7244860178250976,0.7241126595303897,0.7159510629793178,0.7153803434356711,0.7099005917777087,0.7091531062176737,0.6974850180210049,0.6948700246189299,0.6908967041553304,0.6851824077602624,0.6825805920095087,0.677564123954684,0.6691080198987507,0.6723552849358896,0.6669872788497334,0.6645600516953271,0.6554174220339761,0.6557589254717278,0.654442054178246,0.6468469948876521,0.6443027753000259,0.644470467405571,0.6448914335433371,0.6356444974763179,0.6362097427958032,0.6338816413162353,0.6267427746804837,0.6237177270078229,0.6229215959395742,0.6221522663615104,0.6214416512227494,0.620156143384121,0.6157831477183651,0.6156129870214594,0.6155807689820078,0.6112740820583692,0.6112018842681508,0.607921466451781,0.6067257298307931,0.6042718957037705,0.6079615038399954,0.6037352436313667,0.601295000106817,0.594858684252321,0.6004058917197855,0.6000190234625978,0.5985972226956008,0.6008736010982221,0.600281710780436,0.5993428678845883,0.5985361613351011,0.6013285263796808,0.6002895693978381,0.5958272771322495,0.599460468395268,0.5944093917614234,0.5945487276398135,0.5956047625613012,0.5978570570229388,0.5996404668518772,0.5981547309321532,0.5991915223040413,0.5992661844767843,0.599408734860633,0.5971394805657929,0.6023281745160116,0.6029747732818173,0.5977189834327086,0.6012602594357215,0.6011252283214429,0.601681277933585,0.6004350106141966,0.6051302741374865,0.6024173833282892,0.6005241050107154,0.6044661504581877,0.6020613433320505,0.6030303705440943,0.6018490309585006,0.6054533420938658,0.6040205413111044,0.6043290375686851,0.6009691543876975,0.6030555946431211,0.6006589524520349,0.6009368184831074,0.6001577571192249,0.6059349272647518,0.6019432605281531,0.5973439809364867,0.597258044394217,0.5913709374786462,0.5950378052760631,0.5920676355624617,0.597873226294883,0.5940923767293145,0.5933123329032366,0.5865274592789731,0.5915473164978717,0.5863141403349188,0.5847357458834879,0.5834623914934398,0.5825890649500756,0.5829355882943631,0.577897026610638,0.5723742565685215,0.5731294142317621,0.5692212862998729,0.5708233757487544,0.567303501330813,0.564668205762588,0.5656394085374654,0.5609984626053443,0.5607658788096197,0.5573246756191916,0.5562304423896167,0.5498896168443301,0.5477738323648498,0.5481812027181371,0.5444412323230656,0.5445746806978082,0.5385208863595327,0.5367607502077194,0.5360627546153228,0.5327629852385212,0.5331683194633633,0.5338658754642565,0.5310354872584235,0.528436067598945,0.527667601041051,34.29703045426738
train,sample_0009,0.5589205411446861,0.5639546030705025,0.5670604313428023,0.5727676525775286,0.573684803984231,0.580060977740412,0.5843608295434559,0.5892467833365543,0.5966871516784717,0.603357948095419,0.6058565942293054,0.6096123114285494,0.6156256047688544,0.6264778952633844,0.6297975484395215,0.6332610899046146,0.6374072922529044,0.6456537840959321,0.6516348681147996,0.6517499590162219,0.6640845745645356,0.6640493892344991,0.6678438035246614,0.6766182785216297,0.6785866760183752,0.6867901914958369,0.6931924836246844,0.6944458212645646,0.7031367017165784,0.6969347870731748,0.7108522547645537,0.7158603823244536,0.7176806133510044,0.7252139283208049,0.7200735867813312,0.7295397530243527,0.7286714008443738,0.7399603874839743,0.7372104688572512,0.740047210362233,0.7395669531835224,0.7460990551900032,0.7455396927728086,0.7456105679893663,0.7458878540461448,0.745271951564915,0.7398035260399816,0.7422260304947104,0.7434879566343453,0.7437529267498495,0.7452207670173753,0.7447647078224664,0.7437023234175533,0.736175170657576,0.7409506961500565,0.7345098760526325,0.7332176426088495,0.7334070617157309,0.7338274997391677,0.7286631100702088,0.7286035959415802,0.7226435485049583,0.721346180583781,0.7162526878234103,0.7178114839653147,0.7089934146538494,0.7072074390604406,0.7043279345115869,0.7039155483512013,0.7017925565584877,0.6972093399399142,0.6941421392435493,0.691744605237802,0.686511537908566,0.6838490088382592,0.6773182919309009,0.6734270004849612,0.6704928098045388,0.6715481698199531,0.6759480105281782,0.6640596540269359,0.6610154584453916,0.6639127411894645,0.6564224769647293,0.6523610233058148,0.6466176773215975,0.6469201805928526,0.6423401577709348,0.6443838571499849,0.634408745042455,0.6371868930571915,0.6261068606170799,0.6288268046807762,0.6251756881927721,0.6323349033542662,0.6184373409592882,0.6209657382304001,0.617522372881015,0.6211379658972227,0.6140528720942773,0.6115984635618931,0.6136701030261954,0.60852061352734,0.6068310697484625,0.605978076696148,0.6018976456326078,0.5995885372398727,0.5993700204543867,0.5995157280202421,0.5930333507466501,0.600558618217775,0.5951653800167492,0.6005295090890992,0.6003091278252216,0.5960670227333691,0.5944908652753987,0.5997019377802034,0.5978995120174672,0.5971034405447315,0.5944020664932204,0.5990471581938882,0.6025713812968496,0.5984871075174186,0.5982127947316955,0.6057058335282369,0.6056824415036497,0.61062394373439,0.6139151466794589,0.6131737615828401,0.6180280058833293,0.6197475619608859,0.6218384632118845,0.6207653174749445,0.6310163915094682,0.6272991947146996,0.627350010645723,0.6330941188928061,0.6364053771092546,0.6376117354212011,0.6383529933335041,0.6395011045412524,0.6440062855382664,0.6491186857252774,0.651085905951145,0.6529965750383118,0.6529111566842201,0.6584934947949533,0.6534607978452832,0.6610685596248764,0.6639158251032178,0.6638937404441512,0.6690681427472431,0.6664363055118161,0.6645477408235699,0.6681316485335271,0.6683029148451974,0.6670435922947271,0.6725945686171078,0.6660531212288686,0.6684558833040926,0.6694532876963866,0.6684048675198606,0.6665982789169941,0.6609183967170829,0.657937524974522,0.6574113173008074,0.656223018301488,0.6586974343332533,0.6536918057595371,0.6475966717129292,0.6512427276424234,0.6410514649747745,0.6440753760951502,0.6381489779381215,0.6339620065729299,0.6316605575948316,0.6277033393338195,0.6232664345522895,0.6184400635564603,0.6169688629853711,0.6121542050218965,0.6057647868059961,0.6037210766590442,0.5979661585038029,0.5966847129955279,0.5937677010708994,0.5857176736260247,0.5830685716878315,0.5865208047837271,0.5742097549133337,0.5738234357072411,0.5682411058788928,0.5676526138285592,0.5622592005038098,0.5589532310675981,0.5558250698985092,0.5516369447676397,0.5508551196984678,0.548188341212243,0.5418844701912371,29.494612294744574
train,sample_0010,0.5439414577160159,0.5458543392765532,0.5484802674824415,0.5494316837547059,0.5517695634812153,0.5597726923136807,0.5637459652608564,0.5637331712491571,0.5639392957485125,0.5717978359545298,0.5732427754964122,0.5756007915084544,0.5791861593274775,0.5840635429874107,0.5850606520968227,0.5922281017700414,0.5990743122332678,0.6016865645503862,0.5994376163150413,0.6108610319505878,0.6070864379041901,0.6162004661672014,0.6220072775697646,0.6241421175488081,0.6268463952720625,0.6310214310768826,0.6342771446900386,0.6402810473992855,0.6420038984306301,0.6476080007263572,0.6492118579538503,0.6488485014881987,0.6545740378416011,0.6576665791345478,0.6585688925678875,0.6604065708182316,0.6640574054617999,0.6652368482430568,0.6608859866898633,0.6715092571559808,0.6728970218151404,0.6707236960061836,0.6721628584945649,0.6723956328680034,0.6768832576085434,0.6742554306820856,0.6748584982030901,0.6734122443359066,0.6766227690743496,0.673844995763179,0.6741048824710453,0.6778269657590961,0.6731892106745518,0.6767594214815622,0.6718588491984198,0.6701937242006615,0.6731936666331007,0.6680314841573933,0.6699904710642914,0.668824403727849,0.6671253287890774,0.6671653350432403,0.6645348780574104,0.66471233126316,0.6633480950000186,0.6680684885750161,0.6615532551724296,0.6597744583277533,0.6583233298056532,0.6585901562276277,0.6606603348902236,0.6545270102955052,0.6548234909075396,0.6603430081933881,0.6565908027887422,0.6524663016890738,0.6550543605662227,0.6539495266150122,0.6549307097033223,0.6583307491503224,0.6567007427311332,0.6559663739362902,0.6584279078186772,0.6615505752137437,0.6562020999868547,0.6614121523141885,0.6611626602490306,0.6640140236475959,0.6620279807693885,0.6635459692284981,0.6609416627823211,0.6659788484103862,0.6728512006811651,0.6684367266939515,0.671501138630559,0.6681642112166599,0.6757448803460179,0.6776297752508671,0.674778146847761,0.6776551245026063,0.6832281090771897,0.6804057474725809,0.6841033608854099,0.6862447207773519,0.6889465666377799,0.6945115560318581,0.6914923988949175,0.6916859830336672,0.6982935865260114,0.6992653542233594,0.693934287480548,0.6994402534308409,0.6983288601576294,0.7007124759811667,0.7063193415602254,0.7043352873223877,0.7115691096675321,0.7066614864581082,0.7105188189433276,0.7106394593982749,0.7098887025653837,0.7111210255622564,0.7055569171566778,0.7082276665093244,0.7084563112083478,0.7151842158816732,0.7131511982439118,0.7088783573308205,0.7094414787360721,0.7127434786154019,0.7130471360522174,0.7122331153616124,0.711004599292702,0.7098949677302366,0.7052235715965776,0.7059756724815743,0.6992647951347272,0.703285143428664,0.7041363247522126,0.7032309554763256,0.7033020136473648,0.700033214186792,0.6935387059228344,0.69596761917017,0.6932477029818114,0.6890433533522266,0.6890513763027035,0.685923364250499,0.6816157791788545,0.6883454659314887,0.6789374170379945,0.6797569530094527,0.6770745730465294,0.6734426822945726,0.6686945692348893,0.6652614565770204,0.6669400356383381,0.6637607927239217,0.6622545369177671,0.6615260720831262,0.6512415921072405,0.6519037752661027,0.6465848009336757,0.6455864434815344,0.644944679340714,0.6409346550005938,0.6371038677358029,0.6328201020633935,0.6294170482303281,0.6250802523316212,0.6238961240536995,0.6186243659351403,0.6142133385391647,0.6068211952219541,0.6063437857750476,0.6030796970655923,0.5960753344458568,0.5964492112122403,0.5962471995967634,0.5858367883655182,0.5881718687349031,0.5805208174971681,0.5808587639554661,0.5713629842502128,0.57637465101099,0.5653759104561366,0.5630796452575098,0.5600457703128623,0.561076169197938,0.5531259738698737,0.5523987070788621,0.5492708546147671,0.5437691831930515,0.5479752162003195,0.5371171373650657,0.532327963985944,0.5334371309592036,0.5261153177710428,0.5277522890765611,0.5246491609541803,18.529072873516284
test,sample_0011,0.561783237595335,0.5619867300549418,0.5694390527976958,0.5698061962178295,0.5784717304578535,0.5860188995120266,0.5872318462915894,0.5894036846604185,0.5921702932856245,0.6016971217055229,0.6014037134011189,0.6138709559836357,0.6140958670666207,0.6191816505605788,0.6275877818382323,0.6391791446976344,0.6415512601108057,0.6462092464421694,0.6517756544614824,0.6569833086889391,0.6625532382201542,0.673695519060605,0.6750323825381942,0.6821873735665553,0.6874740436995562,0.6930992824968036,0.6985739088080598,0.704518213650213,0.7108777309386093,0.7126357259749334,0.7219667972535395,0.7249689564068711,0.7301215522003413,0.7344446974372592,0.7372313825884077,0.7419717109625495,0.7520191740370625,0.75732061124581,0.7586084041108442,0.761124022679899,0.770113199275933,0.7685571349775702,0.769797093772581,0.7766005048243521,0.7790216998413009,0.7782712878046905,0.7825818683481037,0.7854471640206282,0.7859482397327857,0.7922990340566143,0.791182683310857,0.789508252499366,0.790343824613571,0.788294037478126,0.7907546762820206,0.795689172873959,0.7960758536357933,0.7924712004209131,0.7976352021213485,0.7935515082222846,0.7919101397916917,0.7934571220749249,0.794147050851506,0.7909290437506951,0.7927880204908557,0.7882405175434419,0.7890970171191636,0.7914125652835993,0.7860972737579115,0.7838559333577586,0.7800847408089688,0.7832633941929334,0.7824858618405349,0.7745882910550936,0.7743337432206704,0.7745441157418722,0.769306912701381,0.7626494923964282,0.7638372246366181,0.7595600097917538,0.7572129308290361,0.7565537753853868,0.7508656305008088,0.7479436247256308,0.7414028650595454,0.7412920579700808,0.7368404681626046,0.7297150364702389,0.7302931806058361,0.726446278844624,0.7232894749959243,0.7128428842931998,0.708176225163432,0.7029367330574587,0.6985553304581117,0.6955010459930243,0.6928719259617875,0.6820888481668016,0.6756249580319424,0.6736987007429903,0.6643196404277999,0.6642372967608495,0.6602751677592419,0.6546574636526454,0.6471693259162987,0.6424062909899377,0.6412188546461606,0.6352076102778619,0.6357861676271302,0.6301916732478607,0.6286036279547865,0.6227722246871449,0.6151809718627838,0.6122910142428004,0.6156919901601413,0.6088214547264699,0.6019006802279583,0.6010399547516845,0.5990862379974717,0.5981041514106933,0.5919928936496379,0.5884237296330929,0.5902185710289211,0.586049880230326,0.5851441772153154,0.5837322766408827,0.5850266967744393,0.5760734725575549,0.5750620088754039,0.5790294059881114,0.574174764930531,0.5826769698104739,0.5793506701975487,0.579819705989367,0.5742930697719506,0.5739104690774599,0.5691189791683386,0.5722495913779293,0.5753116323741043,0.5739658150785075,0.5742253383238365,0.573791524172461,0.5698723444121093,0.5736975934153377,0.5747190211725994,0.5722377548769524,0.5734952936804327,0.5713243905981698,0.5740340713208762,0.5726792784938635,0.5689176472998088,0.5705576615515379,0.5743834430559195,0.572687138640312,0.5717726877026365,0.576314635903404,0.5759665169403971,0.5709889779750545,0.5754817953290177,0.5690898751003254,0.5724442463256018,0.5703015131141543,0.5723378165140531,0.5659348119329257,0.566449944850697,0.5698008754791213,0.5638403471230542,0.5665530883205301,0.5632336873498865,0.56276963728401,0.5582955666835727,0.5597479073171587,0.552821278736931,0.5547388467308023,0.5539173467388575,0.5527586562804294,0.5499020173311084,0.5496798547564018,0.5477206055838237,0.5424788562008214,0.5418979106956131,0.5388558490654192,0.5371903445149067,0.5367381873039093,0.5368138661142183,0.5321496248206895,0.5294538540616072,0.531037496136994,0.525351919537784,0.5277009587244416,0.5253139105982895,0.5177877468952602,0.5192442116488079,0.5220337231359616,0.5191477464249117,0.5179880113860224,0.513607137767803,0.5171879085716848,0.5119905820457046,0.5152597435363319,34.154972644098294
train,sample_0012,0.5764588948330963,0.5790409999216748,0.5853426374478854,0.5894983610151472,0.5922530868952027,0.5981797705231654,0.6075587600601515,0.6112328537695082,0.6174578569288074,0.6182505152112076,0.6307744579796936,0.6386296014140561,0.6394805801567643,0.6487250036785253,0.6517121053803954,0.6571263338100698,0.6627319538387327,0.669368575374812,0.677445727325643,0.6851534241308598,0.6906762882088125,0.702331066905661,0.7024371313576896,0.7099861925218796,0.7195126797258383,0.7207789418596899,0.72712704020003,0.7314600009183002,0.7418334478587282,0.7388267210488245,0.7492297368013066,0.7513226883297195,0.7570084842908922,0.757852142021761,0.7614972868470158,0.7671610336641613,0.7654297743950649,0.7671741687534281,0.7701031382989704,0.7713852178725421,0.770512708609935,0.7699442464593724,0.7684381572603176,0.771605599161594,0.7623633101837977,0.7646157415930954,0.7618189207915743,0.7633538617966915,0.7602373211464735,0.7562102554922132,0.7583355453718599,0.7560051418107943,0.7455944499660258,0.7423933542014315,0.7386316497845646,0.7340410996583172,0.7283577605436065,0.7246733014036737,0.7233913333894978,0.7144106712536213,0.7131001327636362,0.7045370733397043,0.6952033674192099,0.6924174462198928,0.6858680027439973,0.6815536456260757,0.6725592440964787,0.6710262926163919,0.6686664983207722,0.6602125423444982,0.6598299472019888,0.6523848187074818,0.6451097684862571,0.643446172303204,0.6430184654619369,0.6324301055056138,0.6302832581841347,0.6274442880565387,0.6230677854614026,0.6224245954951594,0.6143783992922301,0.6153952439784036,0.6156141465018112,0.6122664546843926,0.6117835358633354,0.6060425648342131,0.6040564369048006,0.6071828295226712,0.6050962469978338,0.6048817312913113,0.6021051207064883,0.6066349407508974,0.6008785836078427,0.6037154379796676,0.6016427307900263,0.6041604611714211,0.6056316253536044,0.608593613015726,0.6066673262300417,0.6055486670817929,0.609755142338316,0.6080548358829849,0.6096103742029023,0.6122770819382636,0.6186467831126203,0.6170385825171113,0.6142753494774746,0.6181125453580673,0.6211159083219202,0.6214824650238324,0.6228122027751359,0.6248225100830621,0.6287671208360183,0.6256034321283002,0.6303799797301421,0.6287901802497516,0.6344473324488746,0.6358746851029285,0.6381350043758369,0.6346697555790161,0.6423720881857133,0.6361334218444471,0.642955909565312,0.6385831237054213,0.6450563347965517,0.6469658122207089,0.6441413010407365,0.6479464107392148,0.6470040350216348,0.6443243318803537,0.6470551602252421,0.6500737011118777,0.6473807467483004,0.6512584182951892,0.6470888787380269,0.6508088034508843,0.647353101231374,0.6524730996235952,0.655879288858608,0.650976160433369,0.6496716353486511,0.6489336135998843,0.6508321858667818,0.6498495290256789,0.645346929515898,0.6471626974261737,0.6463853246888713,0.6475391207939609,0.6476660349085093,0.6466050744917096,0.6445218713188352,0.6434541991374421,0.6414267831025164,0.6459700684555474,0.6379121073477992,0.6375455150975158,0.63421884299597,0.6384042645429047,0.6327884815264793,0.6314434898133288,0.6320986354818688,0.6243632394177445,0.6275508725322606,0.6219077075107219,0.6240303836973407,0.6218171739003416,0.6158178975939561,0.6127172574264512,0.6109585428640469,0.6036042783026415,0.604891541165397,0.6003659328326777,0.5980301232928087,0.5938851384763494,0.5978985748301305,0.5856990818168744,0.5865702792640768,0.5804904176494498,0.5782560563723729,0.5789162962163757,0.571084209759021,0.5721046275094952,0.567628402083563,0.5625310629329118,0.5581147677942127,0.5561055903255111,0.5532989150280125,0.5480909708546025,0.5534411315661595,0.5414628266091968,0.5432167453263315,0.5399226851281348,0.5405012164550272,0.536425156100969,0.5330391753524822,0.5305999642950056,0.5305258935588372,0.5267110837562399,0.5223904476561755,0.5229231977610287,27.449780298983413
train,sample_0013,0.5852649807210337,0.5953046386818355,0.6034824046369832,0.6035934668805164,0.6138737620387371,0.6170078214463393,0.6258971867215897,0.6343057394023581,0.6377522613710148,0.6458483422175183,0.6559386298164509,0.6568651766843735,0.6691355609824077,0.6793794502279623,0.681701852793024,0.6909170183273001,0.6985312018256494,0.7123188794429577,0.7145325662620822,0.7202977328766847,0.7301596896666926,0.734375170962529,0.7495704428744794,0.7527416599432413,0.7573337505331443,0.7658647915820366,0.7746922261951827,0.7738673866030705,0.7875333554786019,0.7836416696643891,0.7886867551010874,0.7953392809061688,0.7983764840963131,0.8051705108406686,0.8095712011126492,0.8123035411759623,0.8151385673263494,0.8157528426103867,0.8180164228103447,0.8215061107560584,0.8194625777489644,0.8203530205290789,0.8197320724519901,0.816305576585511,0.8195444060049846,0.8159595719844281,0.8080343486255562,0.8093994221362171,0.8032397798221355,0.8061397762794693,0.7998254959299274,0.7906772708330085,0.7960164736280754,0.7863797590969185,0.7747688728429147,0.773062959271434,0.7618785071739018,0.7588327904173902,0.7567980698059491,0.7495739661181721,0.7393289829593868,0.7398987151276017,0.7317742526016363,0.7218642176286671,0.7189976543517221,0.7116887410508712,0.7043859949314321,0.7029963576039946,0.6953284770397612,0.6874101385041009,0.6843744961278668,0.6832332801379513,0.673921998383971,0.6708752523307941,0.6612772607137759,0.6580587905676665,0.6576283923357142,0.6459266910675567,0.6438316661272805,0.6484236784953126,0.6416030867596507,0.6425507905937875,0.6354743717096019,0.6363400654986696,0.6365973364677904,0.6358954075659099,0.631514655745115,0.6334323811251384,0.6351198854046973,0.632740666297016,0.631701970139973,0.6332410817223904,0.6337324456719116,0.6367239754484562,0.6293835322266469,0.6377066335507776,0.6396220967989825,0.6371788242690307,0.6381655025185274,0.6430418923124097,0.6423341878477684,0.6472262851193423,0.6478468879688539,0.6509232420075933,0.6540292163812497,0.6541684744444993,0.6595715002717357,0.6650597968069071,0.6609842679651422,0.6661297679119753,0.6678781223806325,0.6615641519642043,0.6688010486264155,0.6678201331479632,0.6658227029776784,0.6680820746967686,0.6709213136047344,0.6715581017215686,0.6695623405760426,0.6697780574467733,0.6726737198024314,0.6680413526707183,0.6645192142818185,0.6697676931297111,0.6630978810665901,0.6698369725568027,0.6634476610356544,0.6599889886208459,0.656988984210191,0.6514124250190527,0.6495183408221434,0.6488371345480399,0.6493453741562201,0.6418801262804816,0.6418187277584294,0.6398118601509313,0.6388980585922658,0.6278127512249924,0.6253015220670914,0.6248281335812613,0.6195573411984099,0.613210055499428,0.6064017528132855,0.6068630650398623,0.6014751561732264,0.6001903995903829,0.5931945897999641,0.5881287606418107,0.5862003505734681,0.582628296305948,0.5757117505491242,0.5718243181072358,0.5685542675993229,0.5684952865512984,0.5614285954830799,0.5640316734685332,0.5511890471911269,0.5529530012197661,0.5492268043280544,0.5466139614643468,0.5387779639492697,0.5375815108903035,0.5326053666136839,0.5315470896371574,0.5292430881410788,0.5272344929182707,0.5212188488233934,0.5265508744042544,0.5234148674654965,0.5217895011474185,0.5170397947413748,0.5137167326274991,0.5140789642678435,0.5120641034026165,0.5127061706002582,0.5108239247419857,0.5110894636617929,0.5123797731614986,0.5058150596752851,0.5045392318559563,0.5064031891465498,0.5032078243760673,0.49899659691413023,0.5031577948192641,0.5011147602309214,0.5045068123046668,0.5011360085397015,0.5001124444501883,0.5017365435064411,0.49825368889064303,0.49530361729864786,0.49624887333602746,0.4954056794575527,0.4904975725116289,0.4943663164514799,0.4944023477407115,0.4926585301705456,0.49179586071760095,0.4936113246113839,0.492998581780613,32.855576408413704
test,sample_0014,0.5534449428073202,0.5538477333008043,0.5571837747904811,0.5654869398490683,0.5651954941591011,0.5734820594104468,0.5771372957789682,0.5803694011719455,0.5836803643507875,0.5849169365319424,0.589561540000103,0.6022465631584806,0.603797244228648,0.6073363091949631,0.6051094962264836,0.6180862149937321,0.6201391212985374,0.6267326255078438,0.6357101678938577,0.6340222705487603,0.6432985886870652,0.6509091869401842,0.6535043983354905,0.6620941957827051,0.666759106466417,0.6657429208108807,0.6776535170838687,0.6813296414958254,0.6814864666378275,0.6940082162951889,0.6948029838254921,0.7005569499035461,0.7000486113936242,0.7053316908002211,0.711648464711244,0.7175806396219528,0.7214237294033647,0.7241877874238235,0.7262641181099849,0.7318242203755266,0.7390436240408322,0.740279166196576,0.7453071984236516,0.7476460195238539,0.7541905644894717,0.7558372698387095,0.7578021492650752,0.7579928197016779,0.7624873211439808,0.7588685052276183,0.767864222387947,0.7701603068861964,0.7703679779648069,0.7692107098976768,0.7728321444122594,0.7747698880078833,0.7782220983595634,0.777927949010286,0.7821677002581324,0.7819398004163503,0.7798342696005818,0.7837412418407048,0.7839321952160312,0.7873742801716892,0.7823373135771671,0.7864500072361329,0.7852911589550109,0.7863587240477408,0.7839174101270895,0.788222230095809,0.7910648618713865,0.7829827790406099,0.7846030234035613,0.7874333326431089,0.7820088452045846,0.783556838947315,0.7827209638860253,0.7791486510619882,0.7795709459293421,0.776061108280363,0.7773985751015126,0.7779378363166655,0.7773529245527093,0.7742948167493764,0.7750178758496081,0.7689824394922569,0.7659558945026337,0.7709227596183157,0.7637846089659861,0.7628826747841572,0.7617599006592535,0.7563783284151864,0.7491847659899521,0.750233445114521,0.7501974971221397,0.7409512540132481,0.7413085671473361,0.7394072839800672,0.7340323798269475,0.7311438108228723,0.7292992647530335,0.7252313088590214,0.7226774266711626,0.7186263906233135,0.7183232657853565,0.7141595348050647,0.7066180101316549,0.7078342627887506,0.7020210915613923,0.7006175016780682,0.6969449032206412,0.692762900636745,0.6872728460555266,0.6856899700900286,0.6748680537910852,0.6763655819707375,0.6730973830168963,0.6731774230701861,0.6724752355020818,0.6648972948031067,0.6616420865265302,0.6562673908988308,0.6545505486341598,0.6520732617391143,0.6478993027789244,0.6447463599368047,0.6374552152208135,0.6377436090530728,0.6291119799317098,0.6315286009287298,0.6284038691546407,0.6195577041637861,0.6248112040568553,0.6196118146754861,0.6139252322085105,0.6105081371825158,0.6055524013430736,0.6023862797847384,0.6007970390439664,0.5982333162952069,0.5958228522538952,0.5916115562068404,0.593135672888099,0.588934331883121,0.5817923265336553,0.5800742327593845,0.5781669446688101,0.5720584867353198,0.5699133412319553,0.5705955227686638,0.5708097624186617,0.5646835779573487,0.5632198746299478,0.5550925700300743,0.5535750166468396,0.5523067643776767,0.5517866681369261,0.5528461922465082,0.5543497659987698,0.5446069792417781,0.5415711873691186,0.5414638279402896,0.5336702343727242,0.5362802683220848,0.5358617028075291,0.5347274962545696,0.5329076468314144,0.5337238181880904,0.533524938025431,0.5307640313319543,0.5275559990418948,0.5221179813902493,0.5270427086717456,0.5250659078894742,0.5219260418202541,0.5230729351333591,0.5228915881365391,0.5186882953958407,0.5176809137649647,0.517645440026516,0.5127224412273346,0.512542580426909,0.5153072850293876,0.5145192323044133,0.5136034247289353,0.5117538005046256,0.5119659429239702,0.5085457113857288,0.5111406924276102,0.5097389882988503,0.5063131879441605,0.5005470907454888,0.5069928626120648,0.5089474555049506,0.504974893873609,0.5044156910817421,0.4997833927907913,0.5041581265317185,0.5058199172082619,0.5062470070793905,29.09179635787621
train,sample_0015,0.5053552155107386,0.5147400501546748,0.5190219955002917,0.5174058219690069,0.5207781696668847,0.522570456974644,0.522554703833583,0.5264711080459921,0.5257390728066593,0.5251439743530371,0.5315950408925031,0.5324117509804097,0.5315160373610152,0.5328887525145147,0.5395063455134511,0.5411507351003839,0.5420049204409305,0.5459575178900546,0.5472615798840393,0.5475503597240735,0.549930027332277,0.5561594173419997,0.5571722500929872,0.5624854519803176,0.5602158434462702,0.566894376911655,0.5697373041863151,0.5727434845445765,0.5771612446885933,0.5843315485587591,0.5834064719258317,0.5949492586074802,0.5962410120519032,0.5974899066207601,0.6026472449155149,0.6098475199496348,0.6178542487349922,0.6165846967701138,0.6217256982140023,0.6324776781362595,0.6327442800279828,0.638942828107674,0.6457201677343021,0.6507159675285458,0.6551878478432364,0.6654011910998423,0.6675650611274544,0.6729237490233289,0.680703373226325,0.6890043871090399,0.6952207839468871,0.6975657902491708,0.7065319524028213,0.7120943238828342,0.7208746807730713,0.725410149637725,0.7279307073857457,0.7351590803266059,0.7478030632663224,0.7482450722555483,0.7550105108561513,0.7632672354080258,0.7740596152005108,0.7790821019824077,0.7809323296414334,0.788015834543526,0.7905905681736835,0.8018924125480205,0.8042045729097405,0.8074376718389181,0.8122446275704744,0.8152137248030074,0.8130634374570025,0.8186352435178922,0.8199892815981329,0.8192987639749953,0.8256283413312655,0.8283619719033111,0.8316935640239209,0.8273256106997076,0.8364454815926946,0.8340678829008641,0.8321228105025382,0.8276785772102175,0.8328625891330976,0.8251386680740238,0.8228954472409273,0.8243347994289074,0.8206795520313119,0.818562950213689,0.8119590894498431,0.8107508796098777,0.8102799864958201,0.8051770974817566,0.798908743878338,0.7933495191758151,0.7895109572401102,0.7890749442491911,0.7847551262411897,0.774816855254679,0.7721419009956352,0.7666876800584441,0.7637729575393,0.7537973995672247,0.7490412024022906,0.7441025891368105,0.7399253686404111,0.7353455909344477,0.7308387602587372,0.7266656946921629,0.7169724309736074,0.7122298273240872,0.7025946694824793,0.7031502152411884,0.699026414282567,0.6907416712345447,0.6847716500859903,0.6824642718491791,0.6806838738486124,0.6756833255938737,0.669130911282096,0.6663536511268089,0.6666045903697095,0.659890558121176,0.6561842664095522,0.6547782222616382,0.6554727834349423,0.6509194691300794,0.6465884402531411,0.641901968172091,0.6393765096791088,0.6391700026088717,0.6375390845767436,0.6350263142742916,0.6300201850445536,0.6300628753465717,0.6294192631318775,0.61930814104824,0.6233611446792086,0.6205381540874199,0.6217766418886479,0.6154088225869988,0.6175952772804298,0.6189831776537159,0.6142258533524206,0.6149173361729352,0.6145402773677708,0.6154015093146566,0.6116598362368257,0.6109401793478071,0.6085915113299388,0.6021104277390015,0.6082480777797833,0.6025962685053041,0.6031265140962527,0.598739772229125,0.5936340674108989,0.5997587785536238,0.59897947714152,0.5929943866166445,0.59666001973814,0.5967197083989751,0.5936584473768344,0.5906912719437591,0.5886878948361006,0.5830036229877796,0.5855992448755365,0.579059724161987,0.576767864366009,0.5723096856401199,0.5743355992155277,0.5688863351780012,0.5693359254379723,0.5681591879689185,0.5632707995421217,0.5635924235186827,0.5635036953898976,0.5613642171975376,0.5588922363666495,0.5563648213060356,0.550045010618707,0.5467056939486034,0.5493395997532803,0.5482704883012528,0.5427915112722931,0.5450930881800033,0.539921783182464,0.53765270773876,0.537768910067078,0.5330513583120001,0.531422503033938,0.5318025103796908,0.5286700856617991,0.5204142389453756,0.5261813590267991,0.5251599272549112,0.5199722617205534,0.5155796971900258,0.5198100389491205,0.515936797236361,21.799078713683432
train,sample_0016,0.5214895920594487,0.5168207231239166,0.5215332915769957,0.5202760197434796,0.5211789562659381,0.5248226258787876,0.5228221810406386,0.525262925691696,0.5293309521494572,0.5254591764291304,0.534965272227251,0.5316048279651749,0.5363485611777907,0.5336655137148874,0.538613912025976,0.5402113800387506,0.5350872116197626,0.5400499987736264,0.5346823560695102,0.5454217684914556,0.5470097518064622,0.5522717887672727,0.5521181237429231,0.5508631087489118,0.5541588561766283,0.553610680047961,0.5559862690462782,0.5613977032145196,0.5581249591055306,0.5590042349769143,0.559428602633863,0.5629403282141227,0.5573975900523065,0.5637633132674127,0.5628793993807205,0.5628788037883411,0.5686070680383452,0.5677352505441537,0.5683113072939404,0.566800497372784,0.5675880351520939,0.5632676195842392,0.5664379741787279,0.5695428451432489,0.5680845283699241,0.5711549179954871,0.5701635097430633,0.5631833004389821,0.5666548838087542,0.5643037144878963,0.5662707934536599,0.5666953129975241,0.5686775897930177,0.5672924281590855,0.57208494699784,0.565250454904992,0.5707259516583334,0.567155545299143,0.5669236034084272,0.5629977373331443,0.5667863665217767,0.567104935570478,0.5613986685131973,0.564570680367975,0.5654110914720795,0.5613335177710972,0.563358926330914,0.5665401109358976,0.5635733882249477,0.5617651711092849,0.5622135262536152,0.5648188264009012,0.5657949255996252,0.5651819666196196,0.5678777406662925,0.5655121547851732,0.5718018188111043,0.5692408881674629,0.5660892293654433,0.5720491836368146,0.574226748949115,0.5733645275047294,0.5737890152932265,0.5772856862011219,0.57469704762529,0.5787906288289243,0.5807457956985551,0.5885871599845364,0.5846584061976302,0.5886199314084078,0.5908459978130605,0.5962026630515225,0.6038235224764723,0.6000873691414985,0.6037810379866798,0.6026536047350111,0.6121632167404899,0.6159480204804193,0.6163831956303563,0.6181598960925511,0.6197200116856552,0.6257230489287999,0.6330539331975659,0.6334649780108593,0.6373654086942793,0.6438334354756529,0.6459826360083157,0.6447794311131347,0.6539372775453336,0.6569643460499539,0.667822010066239,0.6679605980829458,0.6702366278370373,0.6811395878876176,0.6828099339159355,0.6924180186378299,0.6932383005593451,0.6939765191510356,0.7067242458056132,0.7101136686726471,0.7136223219496715,0.713480887488823,0.720917157662462,0.7277866807858957,0.7313320856818013,0.7358684176742688,0.7436655601838071,0.7487954984201783,0.7534410270135643,0.7567373608792911,0.7615318949046195,0.7661838702604575,0.772797506975295,0.7761418606264194,0.7818009014197216,0.7889437684527494,0.7879474390492514,0.7933854571599182,0.7972055420111712,0.8097598574937105,0.8043651384331305,0.8061930544523823,0.8174195117842153,0.818012251079451,0.8194736789383759,0.8215723601420322,0.8258580883114897,0.8300681861342863,0.8320898467257927,0.8335180929439725,0.8302542692883143,0.8323286565576218,0.8370057885402173,0.8328762212426281,0.8378771395625103,0.833113099608057,0.8378143343113251,0.8322219452042852,0.8317200878354762,0.8245435576396951,0.8248330905775134,0.8204579174060813,0.8218827205224213,0.8232349096562734,0.8110819411758046,0.8086849505940769,0.8063405014262632,0.797899600076321,0.7947863645105149,0.7866064529125613,0.7804421224707994,0.7776235143097112,0.7722031087137224,0.7652970436088588,0.7595609047679711,0.7489324277437673,0.7431318725402057,0.7372613864582782,0.7265719779779604,0.7185672577727268,0.7148533151101187,0.7065726059846469,0.6922124361078721,0.6929692276533886,0.6838195837926013,0.6737076884293804,0.6659387162851254,0.6556034368082864,0.6528571303750943,0.6427901455870194,0.6360898640974266,0.6291178152539861,0.6259967520382053,0.61638958867033,0.6133030945042729,0.6079377902658369,0.5964007767997684,0.589849037471428,0.5847272509015229,0.5829813591528655,5.49780323080999
train,sample_0017,0.5061918624072922,0.5051095765581126,0.5031370336121751,0.5064043375879019,0.507145060610121,0.5126222634104843,0.5076357362657242,0.5065140700966372,0.5140990256133843,0.5083714569251305,0.5124858456786239,0.5091322640620027,0.5083868449731643,0.514000711809746,0.5091160981957964,0.5110141992109555,0.5168872945045068,0.5149971480413865,0.5141828964976404,0.5116248689393275,0.5169959171334407,0.5159088545402738,0.5131168044136111,0.5209473955097131,0.5146812295251713,0.5183650882118167,0.5190499130060895,0.5208717855399413,0.5220464276473459,0.5199625494893159,0.5225354952073649,0.5185224732640844,0.5219774222214824,0.521409417073632,0.5250668353006537,0.5227522187240289,0.5277374023202056,0.5213273233286855,0.5237583115090586,0.5259364133926206,0.5274328355989784,0.5267029109009176,0.5268526934539449,0.5273164840320756,0.5255696141509175,0.5310835031483656,0.5268877712782761,0.5338015912713437,0.5332213811206657,0.5340301879967666,0.5365892039815747,0.5314490172142206,0.5384748092311962,0.5346408841715491,0.5398836017952908,0.5334581340614402,0.5396971387969473,0.5424013125057808,0.5458971897248832,0.545897490909394,0.5456835550212603,0.5486707928772718,0.5547809581720128,0.5524086589401248,0.5533611120108655,0.5579594866780866,0.5611968314927227,0.563575860622519,0.5708304428276706,0.5785843439505524,0.5780979039994808,0.5829850908963052,0.5872481289691038,0.5908204777104152,0.5940242111015772,0.6040578404952234,0.6092531180752601,0.6137280394510214,0.6189242817888909,0.6242898016037339,0.6352342723940047,0.642877300970271,0.6453754125495673,0.655695395941944,0.664929234579283,0.6689475675466944,0.676710896117959,0.6845567737806011,0.6978355527056566,0.7050925716749202,0.714241985442623,0.7189804571847117,0.7300302922214705,0.7376661511679086,0.7510829472331706,0.7574360182972011,0.7663292922311293,0.78111740983362,0.7934980002595187,0.795840024782079,0.8042897565584973,0.8128283008344803,0.8273217438021945,0.8288055798202899,0.8428552925624138,0.8486610758984373,0.8537447895473371,0.8607636916423933,0.8681507383448306,0.8816665385334737,0.882946865447988,0.8909938680013068,0.8953000675084561,0.8989564418690541,0.9045130836453098,0.907351113954664,0.9114046258306847,0.9172802573685681,0.9153955816675186,0.9152701051089025,0.9119375920424192,0.923106196924596,0.920523550914708,0.9237314918493897,0.9200456932448593,0.9204138350055407,0.9123878303637091,0.9088951046567952,0.9141977671882628,0.9043598730531608,0.897827665219363,0.8913643911870808,0.8891412551541278,0.8860324279671308,0.8757517410615754,0.8726951604929098,0.8660054281540448,0.8626216398635291,0.8536681388383804,0.8436686389048329,0.8402664709413852,0.8357530920559342,0.8255446935911102,0.8144328173991102,0.8084881749430167,0.7993022889463937,0.7920749761507748,0.7860891644093165,0.7759382224304607,0.766800641861609,0.7587477280691639,0.7546141514513245,0.7461864273635584,0.7341002852951668,0.7280871035191722,0.723988119458647,0.7142541574937666,0.7059687873284393,0.7018452428417036,0.698252367046885,0.6882367394418579,0.6797055006459145,0.6724047486415203,0.6672184614046113,0.6608970778253025,0.6526214530517868,0.6503241925873048,0.6445908947148151,0.6404508978699365,0.6294950852309438,0.6262955925967733,0.6174593500717508,0.6159794375249557,0.6124666074968869,0.6042596897454502,0.597786681016371,0.598657111936861,0.592569774444518,0.5912399474773617,0.5871615343422012,0.57896029895348,0.5758193135544861,0.569993963297295,0.5676972080234984,0.567467825269387,0.5661689676415183,0.5641414369959868,0.5565733072282855,0.5549918440762713,0.5521095578477236,0.553521950499696,0.5481795389327937,0.546310807852159,0.5465194423017763,0.5389064329397261,0.5347939416173221,0.5373851482071587,0.5387213040487451,0.5275267142557831,0.52835766258381,5.0
train,sample_0018,0.5546185751720764,0.5650083030032083,0.5614729191717531,0.5645848042712132,0.5774293765088321,0.5755424771657549,0.5808101498700413,0.5860981716690657,0.5892551799922704,0.5873234521185723,0.6025334706240183,0.6011907401798101,0.6103871934443713,0.6145712355370422,0.6177630365831792,0.6245805187217696,0.6287685269007786,0.6364331334385673,0.6387149790194626,0.6478226382397606,0.6525788037942836,0.6561761055504477,0.6634251194667603,0.6637315144679373,0.6680592886064651,0.6742567620562023,0.6787219348356459,0.6822665021200294,0.6843793310311571,0.6927642964589045,0.6931057551446808,0.7028547271060331,0.7008198645738553,0.702346061393016,0.7083139957073733,0.7101679518341397,0.7082130690408606,0.7143909139942668,0.7099749253606789,0.7196399079828734,0.7225836102643163,0.7222265960267376,0.721226466331203,0.7215097664242325,0.721746202177892,0.7196822572523867,0.7233260259757441,0.7231784949404594,0.7214811705495257,0.7224699352496107,0.7164872842095891,0.7179392464247865,0.716780436777599,0.7143557765153347,0.7109145245847985,0.7058850333271731,0.7000190782712418,0.7019510477298806,0.6929743826339235,0.7014247154486942,0.6924895422377023,0.6909523856348125,0.6882399456663499,0.6856407708677408,0.6868543664891107,0.679761393213077,0.6787524888372211,0.6756800793012882,0.6717203704246468,0.6684599818751337,0.6614254545677664,0.6570270583230585,0.6564016530992413,0.6529062074676926,0.6514864476938831,0.6435146535588889,0.6394931878796746,0.6354400542335366,0.6374510320327421,0.6360519368822408,0.6321776372442174,0.6292792156917706,0.6264478644737634,0.6225109359395871,0.6165274258550655,0.6159311843177396,0.6180101525500246,0.6124047984686704,0.609542736646321,0.6096103532347968,0.6030437421863041,0.5982973963032376,0.6028267568018665,0.5983030712065041,0.6007788354176676,0.5935519149615643,0.5940688520650396,0.5939031264672621,0.5953499179548796,0.5910437494713745,0.5880661617646321,0.5933890988739563,0.5911235464066555,0.5914569444538984,0.5872055277576768,0.5902613111664206,0.5907030235591486,0.5874260191417295,0.5947546616068379,0.5882271270460396,0.5904829425890197,0.5915616757383322,0.5953093078715536,0.5950379307558817,0.5968331609067363,0.5980960726140444,0.6002292259705638,0.6003557445976413,0.6055928187931683,0.6037219773779529,0.6039719565287162,0.6060204170023189,0.6143498991821447,0.6152147618933284,0.616920264075425,0.620613902976976,0.6222713724074135,0.6295021121041442,0.6304008740194055,0.631245476603484,0.6383819610708513,0.6415529418673859,0.644584509857429,0.6508725632699869,0.656050939993373,0.661195239861223,0.6620278618986986,0.6608951996045459,0.6725035469633709,0.6734581385129951,0.6732931009414906,0.6797207440158174,0.6854311467216015,0.6882184542636198,0.6868104724023971,0.6952344640151727,0.6954395886578029,0.7028925634539135,0.7052400006148581,0.7060375676840325,0.7077917939547076,0.7084449719011761,0.7099302844365941,0.7142640296742069,0.7132717131054094,0.712749413934221,0.7149659712214909,0.7165179497009266,0.7160790028290926,0.7161789233287754,0.7151045877242329,0.7091861904532364,0.7130317004015115,0.7076588803358101,0.70825841670012,0.7098446065651698,0.7052696256136224,0.6991023923564198,0.699686218456692,0.6938111443699565,0.6917740521706541,0.688950110912232,0.6823023662392235,0.6797645146876283,0.6754854185102928,0.6746531707664821,0.6625450619156055,0.6620038272441138,0.654043802728068,0.6527370751630068,0.6452571926744046,0.6451129471610475,0.6324738120442455,0.6341426253488898,0.6302703857810682,0.6237387090947364,0.6161161012685448,0.6152674273720056,0.6123032103832565,0.6008126046038481,0.5891602342958695,0.5882575574521768,0.5867471171302643,0.5811801098480024,0.5762431646730877,0.5723893707951494,0.5701223607631176,0.5664801051399277,0.5658555793711677,0.5587340759952423,25.72835824891792
test,sample_0019,0.5472843906116471,0.5550364396161125,0.555628086125309,0.556865792391301,0.5636791988497005,0.565870519209539,0.5663414337185082,0.5702949822674417,0.5802694204659867,0.5838373931844172,0.5901215667284068,0.588325218685674,0.5966465714202889,0.5987822123254123,0.6064854072539491,0.6099252529812221,0.6095488818345002,0.6242438441252147,0.6208343002322365,0.6262996575292593,0.6343558039333344,0.6347463192160756,0.6439796190601075,0.6445863963681683,0.6487499985143754,0.6545266247255662,0.6591232849715354,0.6612978311550208,0.6642804514327477,0.6666836776118081,0.6727584281500547,0.6761485660686353,0.6779161873266629,0.678624700460188,0.6878620020461618,0.6851132306638786,0.6926713535424174,0.693021227724717,0.6884137890692356,0.6945640016723128,0.6985093619815614,0.7013026508630732,0.7040648308630905,0.7015056669388969,0.7020113764148138,0.7010733407944514,0.7068432649463378,0.7033838012495053,0.7043014624131321,0.702935789166407,0.7020149467906096,0.7019575300548421,0.701338254949767,0.6987773131721553,0.7032031254202498,0.6993737430137134,0.7015534148041023,0.7008435066960701,0.6999914920608099,0.695859861696554,0.6939077867192415,0.6935430052868655,0.6966520716811774,0.6868675116287892,0.691848134085054,0.687738905475169,0.6925202155216041,0.6882088445947132,0.6912742776376573,0.6905890380711328,0.6862194515802009,0.6875155636872976,0.6871456507429323,0.6883648012499898,0.6848112130526206,0.6930754413067097,0.6918626990632761,0.6894688629289293,0.6917931763815557,0.6943672949037474,0.6875547948258628,0.6974732923630986,0.6981316069193584,0.6986470806326802,0.6996777699933555,0.6997811444656328,0.706668109257661,0.7046773608436765,0.7055169645932691,0.710509832455857,0.7169761842083777,0.7152991443865971,0.7182278557304358,0.7221835118469808,0.7230476130185413,0.7252594175396145,0.7333882544068249,0.7338164361757449,0.7433521681698403,0.7391430236827705,0.74225795588343,0.7442717700058966,0.7436737447875085,0.7493415018608683,0.7521742520609438,0.755593351555711,0.7553041452475096,0.7607102199364038,0.7643867296667441,0.7638811562633863,0.7675401241759705,0.7638894278758923,0.7768736720723655,0.765915199118651,0.768174968725574,0.7668568706140586,0.768429183279068,0.7679973867119521,0.7644905646322571,0.7656120332060722,0.7661803378440144,0.7617991623360045,0.7608013020659532,0.7583165210339664,0.7502006520646577,0.7506176044253814,0.7477441548133383,0.7394100926145758,0.7403042448236897,0.7314391031339292,0.7332999382308616,0.7263579970460756,0.7266348182202104,0.7186233767458408,0.7119535334998991,0.707018657708721,0.7020095705241285,0.6977078578145807,0.6900001460308565,0.6809856210415384,0.6818743975215523,0.6727148411474473,0.6652076998109754,0.6637691945291165,0.6531321105135045,0.6485919266363172,0.6410794086480996,0.6342298947503954,0.6235487568485328,0.6219200689112958,0.61699740063242,0.6104975372269585,0.598949064357288,0.5979894518523335,0.5954501233487981,0.5862265048960673,0.5840528191607955,0.5804318296420501,0.5798194806108536,0.5683478631729824,0.562563784974872,0.5601894712185376,0.558707513531595,0.5532629683150159,0.5488377482419584,0.5459257938373683,0.542044847386792,0.5380050036627101,0.5332152790611914,0.5301617220234044,0.526626038973055,0.5299913317989108,0.5274779848950494,0.5221813067254757,0.5207508427650173,0.5166365947767482,0.5183464494306022,0.5112244256790697,0.5124341410303618,0.5081655947642569,0.5137454497037959,0.5153116144609309,0.5052535413065914,0.509921622646112,0.5059255431444679,0.5037934314334442,0.5075444388438082,0.5055961205566832,0.5009299480254994,0.5036487367596933,0.5062001170152992,0.49672633142572054,0.5010811289434154,0.5007722145254654,0.4998741842863097,0.49705865889073464,0.4969169451794195,0.49922233343787564,0.4985101765352368,0.4990985743233356,23.248791255925436
train,sample_0020,0.5268326124923908,0.5330403335834489,0.5283022956993256,0.5399906119729048,0.5387113307171498,0.5376703009286463,0.5414507701166136,0.5451363044746302,0.5512919579952514,0.5520857469478146,0.5526450533097064,0.5547212456852986,0.559880517253501,0.561364598159602,0.5641451162248295,0.5703505985335593,0.5730572443982863,0.57433426082531,0.572828544825589,0.5853097674846035,0.5856725614886158,0.5895551737689974,0.5928819973059856,0.5950211113117739,0.5944448505772629,0.6007906331146565,0.6103376184572319,0.6086980198104217,0.6170606452233259,0.6176423287163786,0.622836695476192,0.6289970382134823,0.627917733554858,0.631618146594575,0.637907774048511,0.6363593251815445,0.6414713755209989,0.6485505091580575,0.648758637422735,0.6502792711222021,0.6561235452251144,0.6620829813435762,0.6677897934194351,0.674085440843825,0.6731900975048462,0.6763908675395265,0.6778430512734824,0.6848334912682219,0.6909210130772323,0.6930503115701748,0.6972216512271052,0.7022861042420394,0.7055223582838572,0.7064941402364552,0.7115281223976568,0.713694758442281,0.7149399612346867,0.7199396304571299,0.7210240469897145,0.7273585821640809,0.7312199750007968,0.7283887548895444,0.7334213792426165,0.7350600565107939,0.7422847824550921,0.7403447005755254,0.7436605462085073,0.7480261021797139,0.7498153776738635,0.7462227683294183,0.7467294019876816,0.7509582533981594,0.7544195951479462,0.756449883796106,0.7554375512780735,0.7573045463179445,0.7615174913698682,0.7557816372896609,0.7545296953916218,0.7593440569052886,0.7562755468160287,0.7549053428552267,0.7563167068530597,0.7499643340338271,0.7504808545173662,0.7487669459483121,0.7475058872390383,0.7399525037036152,0.747104334349129,0.739983622579458,0.742475165239179,0.7395904109784698,0.7353850662068216,0.7333738740154699,0.7278618934392818,0.7270823807833307,0.723524886756922,0.7131708804368292,0.7166498637299749,0.712515015978107,0.7128505950930784,0.7049944587452472,0.7071495356154184,0.7002026764285756,0.6997669192406074,0.691864801204935,0.685598506207965,0.6859589213059686,0.6846488948519269,0.6768249782402271,0.6791681653207865,0.6743219996823653,0.6700588271775207,0.6687629399103419,0.663786826309064,0.6687127483150505,0.6623953127464712,0.6638870852496852,0.659019184233378,0.660348687636557,0.6533553011688196,0.654193098423067,0.648747449499638,0.6515130517786747,0.6506411889008172,0.6525237081680844,0.6526352789115051,0.6507102295662222,0.6483318594279599,0.6488939151453594,0.6485353624429718,0.6466078348686158,0.6461417042092724,0.6441642862484549,0.6483500086554231,0.6467571324840142,0.6466745436987315,0.6482394767469442,0.6500828260288504,0.6483192753090139,0.6443117515359705,0.6500360828961896,0.6477303265513128,0.6467695894957133,0.6496648432915388,0.6534497387855591,0.6490691072079141,0.6539597329111178,0.6486642197339322,0.6539658743885578,0.6510214848094494,0.6468461190604254,0.6529031768959186,0.6444896507570794,0.6472525843565852,0.6500091583213654,0.6434233385238919,0.6471632233382091,0.6426299802112069,0.6423346943327997,0.641722443033551,0.6390612182735155,0.63930312962089,0.6343307231884805,0.6392123510336872,0.6329207638718302,0.6296954705469646,0.6319918083240246,0.6288628379015806,0.618827654162643,0.6177421106686162,0.6212158140749711,0.616267955739689,0.6125574257136353,0.6094598635959309,0.6087772648198453,0.6004451640012665,0.6010769326909874,0.596333421490283,0.5950634055249675,0.5896781890726207,0.5848152501525059,0.5850309711620978,0.5798519277211873,0.5759775485285258,0.5719105409451208,0.5716203411455969,0.5653055017236708,0.563166322611773,0.5593812868811414,0.5589755856026767,0.5527063098598309,0.552228650468189,0.5489285401178685,0.545579996105097,0.5425375036962002,0.5409244289970292,0.5362224531419686,0.5380696785403701,0.5317553873788804,22.31807913896631
train,sample_0021,0.5427226128277715,0.545132377971352,0.5475948635908578,0.5493293188623792,0.5497647454159138,0.5552556093711098,0.5641188518452092,0.5621946863491728,0.570064981465373,0.5667320284474917,0.5782077868857884,0.5738190689912355,0.5816996607130978,0.5841047430467482,0.5891763170668336,0.5888597758402361,0.596474608292665,0.5959872715206633,0.6034815847163738,0.6074288536737292,0.6100638856422449,0.6173508104520328,0.6176656294656692,0.6183121626430513,0.6234960515878742,0.6277539743727243,0.6302690135430679,0.6382870337255628,0.6376725009039093,0.6342849994782171,0.6413086859438782,0.6456556209446191,0.6438748907699473,0.6466450184335855,0.6488718907205875,0.6474637722877614,0.6547507800692478,0.658369439818087,0.6576293968637454,0.6592644522217473,0.6598125251642741,0.6576609368645003,0.6576460750659108,0.658939898325025,0.6611350516898633,0.6556201600330049,0.6539021501173584,0.6605702571873857,0.6565136002210926,0.6569726866732448,0.6595658844650805,0.6555956917082459,0.6541707232914974,0.6549122935322825,0.6556290612689702,0.6513066044344377,0.6482615782610774,0.6527165795660683,0.6482528104876224,0.6450842387268728,0.6515195844807905,0.6453827289684797,0.6484128801159141,0.6413341458082306,0.6403533279318773,0.6453693945385564,0.6413343980929623,0.6369040379897883,0.6416491664104378,0.6439806030865396,0.6430297259850197,0.64446617065659,0.6455228872665856,0.6443796520679486,0.6436678818822578,0.6473963192003271,0.644289618155935,0.6580212525373481,0.6553789451818114,0.6532012728374413,0.6588124678049846,0.6551494660992604,0.6677286718004029,0.665669801530266,0.6678696457348546,0.673743935291665,0.6790001841473093,0.6832511670466094,0.6856111156268759,0.6930828587590152,0.6966034412679868,0.6986919892125361,0.7072175501553564,0.7097302146631245,0.7203442650833858,0.7225668838940996,0.7276479560510809,0.7374660183759815,0.7404676009734755,0.7475089287076733,0.7484049065023413,0.7572290562330186,0.7606432166521838,0.7653803023495753,0.7687670256672701,0.7767928121453858,0.7822381262988868,0.7885016337544288,0.7964730164279041,0.7945282914761815,0.8013290048200696,0.7988861037136739,0.8012267115375697,0.8051248606194484,0.8040266634866382,0.8070187896097221,0.8067624683533718,0.8114616009344657,0.8089292314186063,0.8111116805084588,0.8143869352203444,0.8101617677581823,0.8089606539257032,0.8102037588445423,0.8032602241653122,0.7998101653753265,0.8020643238963138,0.7965277530539092,0.7911255879927146,0.7913160694577484,0.7859394417593947,0.7778805237172617,0.7754649162984264,0.7635760524142277,0.7641605183654241,0.7562599940044016,0.7481808183395307,0.7426345550332422,0.7355601552056839,0.7308576767108712,0.7266224559470063,0.7140744475170423,0.7132722010115344,0.7061262920538842,0.6919996263301225,0.6911039888578829,0.6833413782841486,0.6759041294866688,0.6702132483820326,0.6613170251498864,0.6530318087724892,0.6402445424865768,0.6441374775142383,0.6342441174193145,0.6302965049751407,0.6288703070294364,0.6158021201887935,0.6153420123243285,0.6038304135240257,0.6008005326824919,0.5922562608974441,0.5904156973626158,0.5823222894781909,0.5777968472811151,0.5687604090099724,0.5737138946997666,0.5666306309911515,0.5614338004497121,0.5589480938779184,0.5539529802187236,0.5520995783728804,0.5445789417550353,0.5478141056643192,0.5420283065770977,0.5385242507925726,0.5381399676878069,0.5359058511540437,0.5342750303332424,0.5268450878621039,0.5281280665907,0.5252640165286253,0.5225393504512561,0.522571554726077,0.5191289153162231,0.5244835978941139,0.5146488330907687,0.5165664419417448,0.5149836726833574,0.5116189389597259,0.5101467430647206,0.5123852983129887,0.5102567726409559,0.5062839178731895,0.5084647792025768,0.503315506367747,0.5085872882338729,0.5062316870582049,0.49903996697667474,0.5009770853991584,0.5044047534687401,18.238217933731946
train,sample_0022,0.5161344189790312,0.5262571896797288,0.5257305354307713,0.5256517481900396,0.530962578481833,0.5323537835618547,0.5290954640053481,0.5368804502496066,0.5383743243347279,0.535266817114384,0.5394195483207751,0.5419954036966088,0.545305043302431,0.5486775852767801,0.5486140186289905,0.5545644508674834,0.552759722890928,0.5535975982227197,0.55897410140489,0.5595701013793343,0.5598650971505943,0.5632195053187626,0.5620309291986791,0.5614739388172671,0.569244910166034,0.5714974334187686,0.574235848336371,0.5733745907376198,0.5792426261911656,0.5739499264794188,0.5854532288994981,0.5766382799036277,0.5756055722910001,0.5796088986259471,0.5850028170370853,0.5832522542657548,0.5899336983708005,0.5822197846405073,0.5921432519134555,0.5847713684457339,0.5896003493009038,0.5936119637611219,0.5922985937544392,0.5896415078641178,0.5908157958775436,0.5907919329740428,0.6025647863159047,0.5879525475399865,0.5976790036234969,0.5962638412917345,0.5989213743351379,0.5941666991427856,0.5926776633798309,0.6012712290106872,0.5931481762854754,0.5999079059942015,0.5943038055301058,0.6007926808922979,0.5952661723592958,0.5947555369996297,0.6028578201643636,0.6019827376065361,0.6027586205738182,0.6016438198586144,0.6068117419137731,0.6064291047451915,0.6078740822333578,0.6104645045558401,0.6136414933627289,0.6147729655434736,0.6198966768221391,0.6219712526115617,0.6258011308714932,0.6308903968789821,0.6310080810713617,0.6317674302899765,0.6406078966218668,0.6476560947776565,0.6474096719521593,0.6574738336287734,0.6561388646612889,0.6616431188017702,0.6679115675780282,0.6772404720389182,0.6869332278797644,0.6933386480141983,0.697339320090578,0.7080808971061605,0.71134270303337,0.7201793872010014,0.7269328098245015,0.7336390575183811,0.7458483131548732,0.7512075004001797,0.75477407295239,0.7677104278228541,0.7744830540248331,0.7859836026127855,0.7965229361026038,0.8009407382966235,0.8097369214105126,0.8172597814406535,0.8280294234141504,0.8351610843235913,0.8380977246993901,0.8451406657055622,0.856694614370426,0.8588025677572868,0.8647082247388986,0.8681295682931782,0.875771803115049,0.8782692396195393,0.88093930217985,0.8902129791140823,0.8915193723842318,0.8961510867071565,0.8940627365334086,0.8937004696070332,0.8984615105678564,0.8931665707236032,0.8970028090103221,0.898121877797899,0.8908299109765827,0.8970709692948207,0.888652365466402,0.8864965827074072,0.8809222991351735,0.8758031359564955,0.8691825189059403,0.8624304013006822,0.8591753008245984,0.8546803988294622,0.8456949995264538,0.8397746899859946,0.826764949816141,0.8207518157636284,0.813312885243997,0.8091078321765409,0.7983138067322952,0.7888889200974945,0.7823518329519771,0.7671726330032603,0.760599191694657,0.7495638384246509,0.7401303148659928,0.7334508430354819,0.7267698875070954,0.7156262418328178,0.7065796781378905,0.6946513231879867,0.6847738615889747,0.675976937022174,0.665949829271099,0.6571446352079573,0.6471473734814546,0.6419277321655813,0.6309014886383026,0.6291316040817628,0.6140483540140417,0.6133052546716532,0.5999358959189864,0.598335364584259,0.5901145099926395,0.5838598152717759,0.579476117333821,0.5762906349415728,0.5703623687867057,0.5645571805934738,0.5635639396399063,0.5600924152683442,0.5469270256523092,0.5448606156545336,0.5416266404020904,0.5363471225705608,0.540378698512923,0.5365394233039826,0.5275280584061875,0.5252247972957612,0.5262251544322593,0.5218494017096144,0.5218682295982957,0.5168068705645593,0.5147934199220955,0.5143533514342228,0.5212870347641512,0.5103148187177057,0.5126051984739727,0.5071026156191035,0.5099960969276514,0.5098520560368534,0.5099023796898008,0.5033149378991754,0.5043165206447384,0.501393791422692,0.5086167961667815,0.5012077823217093,0.5087462379089351,0.5094236423428032,0.5018566730451621,0.501851943586337,6.394306396446039
train,sample_0023,0.5245629728269011,0.5242209571131857,0.5287712128661575,0.5260937011983049,0.5272502499005578,0.529081231900911,0.5338060702725952,0.5373632896619411,0.5387200581622191,0.5374576309175336,0.5424471874766181,0.5412228867286888,0.5494744187884033,0.5522430596298947,0.552446875598207,0.5555899106541373,0.5613619195605986,0.5585051424011007,0.5657710977585257,0.5624695484778567,0.5745366540399578,0.5761324711150927,0.5796211673557924,0.5835771218250153,0.5834724068312734,0.5907887096588963,0.5942287831045672,0.5972794167154345,0.6026689445244096,0.6068300034554874,0.610483193538325,0.6155797828398225,0.6183331517099248,0.6225956842184575,0.6270206860249472,0.6347271581007017,0.6359054194012398,0.6451024977541001,0.6533826495493403,0.6545119007243557,0.6601878977390228,0.6648535374952016,0.6670690769035926,0.6762718570428495,0.6847893932891207,0.685076000192375,0.69344140974309,0.701293578659804,0.706255595774052,0.7109645930655171,0.7151772018863966,0.7249140546234805,0.7289153764905304,0.731003369048655,0.7409368563365906,0.7485289744463953,0.7588795443651493,0.7563541432900622,0.7662479408184755,0.7708997594339488,0.7796801743284119,0.7857817858618843,0.789370492818315,0.7953943983274763,0.7992995490137704,0.8100657655401687,0.8091197112441371,0.8136843096598841,0.8183997599886524,0.8246254582275669,0.8283948448562992,0.8354592990087975,0.8330300392117431,0.840817415959068,0.8374812109037776,0.8452026416926628,0.8448056516199365,0.8486886195377097,0.848461041172343,0.8526751945679678,0.8513744386174289,0.8535585533545667,0.8514725553719288,0.8486487270273045,0.8550813195148551,0.8502536199154571,0.8463299955882031,0.8488173388131216,0.8483937814382245,0.8420499074458369,0.8424290395669641,0.8385429902657775,0.8324459436461312,0.8367192705754978,0.8319429358267804,0.8310312276597412,0.8214245973484704,0.8246806749666951,0.8205589163160267,0.8046907334346136,0.8079174070659279,0.8007945521201281,0.798694993873198,0.797579785872323,0.7912926164733658,0.7803956395063456,0.7814438891530153,0.7754027506711789,0.7683858492660753,0.7627133193569933,0.7589173498894723,0.7529054498602915,0.7481523310899416,0.7447322787637237,0.7378935109937648,0.7350542387735256,0.728381250724581,0.7247678518935008,0.7152696813850273,0.7158666701015688,0.7104869274443377,0.704058631953181,0.696369810702717,0.6914582465687473,0.686250573880149,0.6818822916751166,0.6747215885867139,0.6665382594308138,0.6659791856895932,0.6571487521376824,0.6554580566555512,0.6508156320849071,0.6464160975772931,0.641151228522121,0.637245774379547,0.6310450763851626,0.6260411182842236,0.6236605493272407,0.6234123493521507,0.6163683705147093,0.6112794847077794,0.6065918162570405,0.6008651894599948,0.5945476219152199,0.5927130154259111,0.5915965278513121,0.5863252437560547,0.584908692668463,0.5782304517883843,0.5739579763170972,0.5711296523458222,0.5654221341263063,0.5656283796864164,0.5574645201856094,0.5561322667370824,0.5568397594697397,0.5517322392774171,0.5500754541699274,0.5491245185099866,0.5397785221867994,0.541648219723611,0.5393915193572585,0.5357870106385738,0.5386401513990648,0.5352082902168191,0.5309750398781481,0.533084276007805,0.5271482336672966,0.5270141670074362,0.5270999828437242,0.5295095011591053,0.5265501933172556,0.527161558928429,0.5185034909796365,0.5233102348332496,0.522959666001154,0.5167877814636913,0.5144851314385623,0.5142072931287629,0.5149828487358648,0.5105741469490077,0.5084676793622559,0.5139971246190832,0.5146273563241134,0.50979805205936,0.5139719106676525,0.5087992405080369,0.5109064810147625,0.508605385485439,0.5078431867574138,0.5050392808528376,0.5079092208408248,0.5111004228807671,0.508127650351162,0.5057820670630627,0.5008264339448741,0.5083542502904117,0.5041130900962382,0.5058783713325741,0.5055056234705986,23.17261519048942
test,sample_0024,0.5304872200282418,0.5310448404644734,0.5322839093006569,0.5377910584194471,0.5386210493014478,0.5430516035770581,0.543949892236472,0.5422155904451909,0.5499383182217801,0.5543031622594263,0.5586396741000687,0.5656895725380096,0.5646839408350726,0.556453786404268,0.5689673195438782,0.566077644016425,0.5697812442574319,0.5726234912609159,0.5783760188484451,0.5763158496371746,0.5795359878662096,0.5863996788844449,0.588559340882265,0.5902814338516309,0.5942104970829944,0.5961879684942324,0.5991858910699778,0.5975094668879165,0.6016729630028262,0.6007864633661353,0.6059520150530726,0.6056658878633585,0.6078548116157555,0.6082990189074728,0.6153602267426697,0.6119016675258809,0.6144153299810238,0.6114241882449681,0.6095348552334344,0.6156778376200776,0.6139672160259411,0.6140310222737833,0.6113375546676025,0.6152923957390029,0.6202152309300483,0.6181084994993384,0.613490537817343,0.6130868741108594,0.6097997166773336,0.6071727438959917,0.6088005250492602,0.6076263841265678,0.6031121889649903,0.6053950096513069,0.6006052300350188,0.5975705884674238,0.595907796525275,0.5957868331565784,0.5925883851187497,0.5930696710134717,0.5921480053810495,0.5852803000598634,0.5827139491370146,0.5779750134329761,0.574955457253242,0.581997355482187,0.573048472017654,0.567874336780523,0.570197920146285,0.5667581822498559,0.5672866660540377,0.5643740232501102,0.5586844658741849,0.5617372640429712,0.5564046176014222,0.5601550531822846,0.553736485658409,0.5540377022333369,0.5503073128833564,0.548942633192081,0.5475856491797267,0.5452586682049634,0.5461512844234948,0.5450367831819963,0.5419230950058558,0.5423933192974391,0.5464676323275321,0.5434576209650661,0.539725173233909,0.5420629948063864,0.5460207558204063,0.5423417863159536,0.5425577149613937,0.5452806299926523,0.5457230356769592,0.547818051440154,0.5468190797636229,0.552008865652324,0.5477972375083354,0.5561149120911709,0.5565759327234723,0.5555276405233011,0.5579876161165997,0.5639076802390368,0.5638444993709935,0.5654193333022287,0.5649452844855791,0.5697710518951984,0.5747276983085892,0.578163765124242,0.5862259334243777,0.5878896112257763,0.5920407012368509,0.5970524277931631,0.6006209017866728,0.6056819979405043,0.6096092364379185,0.615212448863383,0.6181690186335079,0.6290936283319054,0.6352471063052967,0.6423848980534762,0.6448904212315093,0.6572577606547485,0.6617410501587155,0.6651482230916784,0.671037879183903,0.6810947370411846,0.690373123489686,0.6951970048708617,0.706938951455888,0.7166951350406761,0.717404747189041,0.7279695451223462,0.7372185444049777,0.7398551108563087,0.7492029480124054,0.7586785784734695,0.771267533980296,0.7780711985913565,0.7782704800675606,0.7894490341980385,0.7928370912625702,0.8051427963533503,0.8075919413820655,0.8178788206758799,0.8184921048668883,0.8222543227560771,0.8298184005793006,0.8389125261604387,0.842716106110766,0.8429702623415535,0.8487198877982461,0.8519020598285285,0.8544458738901923,0.8553156441032745,0.8587626325413991,0.860377321949829,0.8596940278391056,0.8597108546179274,0.8610622908347609,0.8549996806844145,0.8572812382945837,0.8543009232786134,0.8475644948552468,0.8456844559965704,0.8432506237858233,0.8381819266874925,0.8344552491773727,0.8284541719112914,0.8240184782698302,0.8152730051008412,0.809067759359534,0.8069976649496158,0.7938214620854377,0.7877710042915023,0.7849475507104933,0.7702225232253548,0.7654540563869078,0.7569688384958891,0.747938411632552,0.7399579336606898,0.729971339290856,0.7254286766204869,0.7163157132496931,0.7073232663185012,0.6962754621906111,0.6820266249248131,0.6818687795726941,0.6743007135977844,0.6682887061744845,0.6560399639579286,0.6494131660108837,0.6352522563527521,0.6376140163937997,0.6263349619338917,0.6187612346482202,0.6140410237317857,0.6070512720530987,0.598463859013569,9.683994176295851
test,sample_0025,0.5712985985475001,0.579754415181484,0.5853275724731043,0.5893586535745231,0.5961206589404642,0.6030992689668851,0.6063898377467584,0.6162665824480089,0.6154415305450524,0.6274999373409644,0.6359670942185266,0.6385909377206995,0.6418796413414175,0.6535069411641501,0.655157181700242,0.6587471514650638,0.6725211865205988,0.6781827804943826,0.6828466320422781,0.6895264995817034,0.6953005648742177,0.6968373959897182,0.7055525193472989,0.7113594420125205,0.7213061618443752,0.726092288290939,0.7329128640006305,0.7382969713211724,0.7397561426132762,0.7412630044389895,0.7498005229147604,0.7558944395382061,0.755134091020271,0.7598540212895613,0.7610757532308985,0.7661155506012147,0.7719510946151438,0.7657228357949061,0.7674230944362893,0.7733361013092179,0.7739854983197316,0.7705567327939996,0.7683735423075657,0.7688773308765202,0.7678294049130032,0.7702976714434757,0.763735274555752,0.7567208191185687,0.7613359098254817,0.7588285705038752,0.7494164911359879,0.7472261936340716,0.7428774989751508,0.7380923361898856,0.731993616366067,0.7324931341249681,0.7242252019371541,0.71862136926307,0.7148234287643023,0.7112277094725703,0.7074212868583679,0.6996458797594293,0.6891969761976602,0.685081611714828,0.6822560298893252,0.6762205733361479,0.6719216992440789,0.6646566422092112,0.6650049138800722,0.6558414792366619,0.6518823354470239,0.6451116108167615,0.6438129364583516,0.6402078314021353,0.6340241789963956,0.6325628355652182,0.6286998751655545,0.6299998956084354,0.6190469884751165,0.6222306684330488,0.6176847273287084,0.6141970991290202,0.6159385160971792,0.615192165740087,0.6129350378081143,0.6144139720990976,0.6089349857653833,0.6088050055474029,0.6086278456690436,0.6165514668001548,0.6195630872198348,0.618386710341484,0.6152106763797734,0.6182688623961462,0.6195763423008126,0.6185180659696089,0.6242780746463982,0.6254690692722013,0.6259241519532874,0.6300586904179205,0.6323736318074806,0.6366207721572955,0.6342938733727594,0.633623222685193,0.641323310781074,0.641075560345277,0.6488184097152301,0.6487749291931069,0.6539869354730041,0.6554199731256791,0.658734376172838,0.6572879417496615,0.6664259175133496,0.6660214657521647,0.6684664198705246,0.6663486435762689,0.6729633715675398,0.674035641129898,0.6746384514349568,0.6745698615653114,0.6754641076653277,0.6781779473879507,0.6774059831511885,0.6798776817310273,0.6843409617191356,0.6841104041178542,0.6811449779718709,0.6800504697988099,0.6815190684736088,0.6783554878662365,0.6796049017246908,0.6789262163816963,0.6803987555851216,0.6750768626407435,0.6788839801612301,0.6753041868885343,0.6733220123082705,0.674914654628678,0.6699043918421339,0.6755952361826034,0.6673119803050696,0.6661012412977994,0.6629923766272399,0.6656534932553191,0.6610567915330844,0.6595330569542347,0.6548909124602362,0.6526075661745918,0.6490468640862792,0.6532779634020129,0.6455958934064749,0.6415158423890218,0.6403190801982005,0.6387104019265285,0.6349629232652481,0.6315087919543618,0.6297773462055609,0.6320517795432259,0.6284047298141763,0.6220079262135414,0.6215319552854001,0.6181995243798135,0.6173362626179578,0.6108429085719239,0.6132465507282993,0.6052199169222279,0.6040764384273662,0.6001695473575921,0.5995337554562293,0.5947133991015583,0.5867080317228304,0.590327632228341,0.5888093946000449,0.5807029111273141,0.5808597188839658,0.5757818297155193,0.5739814152142498,0.5729918298528172,0.5673372743767106,0.5719766060879725,0.5623748900980997,0.5652315665855766,0.560341460835571,0.5577020985454285,0.5527850149209819,0.5505511015260218,0.5526598736745585,0.547489124911846,0.5478097560868007,0.5441935172005093,0.5387927782179586,0.5404194145551062,0.5368009490627194,0.5354236196597087,0.5316333192282416,0.5295269766648766,0.5292855427465148,0.525794056812987,0.5260125295515354,0.5264566653832347,25.60296923566795
train,sample_0026,0.5276439055263592,0.5291473900944923,0.5324934099148819,0.5357779795667219,0.5371097409512412,0.5398552906873099,0.5392354064012842,0.5438762487402903,0.5447323929417803,0.5447578680216207,0.5498877557390294,0.5511443618735237,0.5558327963562097,0.5634050837492874,0.5601350346541181,0.5635486449121535,0.5661096281187549,0.567676452774806,0.5694722364906899,0.5753757295687251,0.5747723168593909,0.579355399557656,0.581326194461207,0.5826786851857073,0.5897700712569545,0.5923907199501536,0.5935500709983517,0.5954815437261927,0.5949747686437636,0.6031784863131353,0.6022060697253709,0.6052083474262314,0.606814585940012,0.608128775821776,0.6121659780829893,0.6144568226722581,0.6131722664414889,0.6166558704865728,0.6177366448224242,0.6213209413405887,0.6145300480152234,0.6173533541565082,0.6208561534367523,0.6241959864869822,0.6243956898707476,0.6237594223056163,0.6235604224055837,0.62290329655562,0.6273478183584733,0.6254058835675443,0.6266265879530418,0.6244950153498283,0.6305059068559379,0.6306537277733418,0.627629757880714,0.6308913276130536,0.631375169498372,0.6322710443709135,0.6334876106658636,0.6298957622505951,0.6353080894746914,0.6332516213278593,0.6390666136440051,0.6350859083117044,0.6329740552974589,0.639232020176827,0.6397378238380413,0.642645123751542,0.6410567473944793,0.6455324526585225,0.646890865023863,0.641087943304876,0.649447014789959,0.649036000442257,0.6470773259500591,0.6618117521450113,0.6603482322453308,0.6632893762739079,0.6675682828647921,0.6655148123525537,0.6718695734819207,0.6780544150999387,0.6809558230856415,0.6854142133715826,0.6901633283148289,0.6943473303665595,0.7005461518060655,0.7044532660932837,0.7082841160346284,0.7120844841394688,0.7181916653328697,0.7230345617920081,0.7242063345530996,0.7325124452294418,0.7387889024783612,0.7396251850625377,0.7531428644989544,0.7545868873512832,0.7571261014168944,0.7644563823160495,0.7682909828181714,0.7784076004379977,0.7775890471130369,0.7818213047067099,0.7932443909121274,0.7898642585884594,0.7980600138287377,0.7988092347306737,0.8044794286707646,0.8097669095341582,0.8113848693768904,0.8144263006434573,0.8142565344597861,0.8166715166035411,0.8204274905899338,0.8227306936637124,0.8232612813685933,0.8219946453731464,0.824268411680712,0.8238257695251712,0.8245192120580143,0.8233311857232481,0.8191741466156024,0.8215543396266017,0.8136247052915755,0.8179506780492309,0.8143496920333646,0.8088757846551519,0.8060271168076409,0.8006964865482368,0.796237589689608,0.7911697423584281,0.791170403552509,0.7849123060658598,0.7794833902276133,0.7741400277788131,0.7637870051970492,0.7650581630603371,0.7524205664279104,0.7482710909256585,0.7478356592175128,0.7352113185613556,0.7282428887008234,0.722755238529627,0.7148245130118253,0.7104713590335201,0.7048720796296233,0.6957824620698391,0.6877132215799662,0.6824713084577091,0.6767110957670431,0.6763175321614457,0.6630220141145934,0.6574548545817764,0.6522855204606445,0.6524967341797763,0.637065292134442,0.6358821851886303,0.627043627656146,0.6236603662445067,0.6233469245023309,0.6123235537553293,0.605694174865723,0.6037472551567638,0.595718199744588,0.5936931454645608,0.589678964989764,0.588367740383227,0.581941096646124,0.5868000400454574,0.573982270421599,0.5727019825378005,0.5653097340185405,0.5627118191446652,0.560439401293733,0.5576054646478259,0.5530760163640024,0.5489019151545956,0.5495600893870399,0.5432944319084565,0.5461511663513255,0.5423475374637914,0.534332487368265,0.5351733984450551,0.5311965917325074,0.5308469801436004,0.5274993183707976,0.522550449739102,0.5282918410338282,0.5224425723642419,0.527864853356002,0.5185995152693658,0.5182745152459376,0.5181997796699788,0.5208324316839928,0.5159450060321936,0.5132115042397664,0.5139971388372901,0.5124145151848661,0.5192111904079175,17.33053895208202
train,sample_0027,0.5612332654629206,0.5664882955774379,0.5785870463464897,0.5789806246159159,0.582352905910758,0.5875873339309867,0.592178171281623,0.6039065441939551,0.6076177231648163,0.614418163938392,0.6181072445339919,0.6252082919660606,0.6260498012892904,0.6327505290359696,0.6369176911506255,0.6450513328987593,0.6454379667739021,0.6593237626360677,0.6655278395915445,0.671493580235779,0.6723766332161722,0.6829444510648617,0.6908194575369667,0.6925172686943217,0.6928080498145945,0.7008393561190001,0.706787567409229,0.7134558632460443,0.7174519800722544,0.7178869574292872,0.7251274927031084,0.7241424693161633,0.7297156753203751,0.7332757888826021,0.7362393744746217,0.7351254850199356,0.7393888679011433,0.7444921940065566,0.7399747841425419,0.7409228493706861,0.7444296203707671,0.743011723805101,0.7427438757853,0.7378522557424031,0.7424579103433584,0.7408580116218793,0.7348563095845291,0.7369042062840565,0.7389978640571806,0.7312240273550676,0.7300440476686878,0.7283244253522545,0.7240555688403568,0.7158131288801626,0.7205898867102601,0.7103081133633539,0.7037982409257432,0.7029098879821127,0.6958638977365094,0.6915120786413005,0.6884840198063295,0.6811570417093573,0.6766029605383606,0.676727982667086,0.66800295357239,0.6642712618476525,0.6585170429846643,0.6548738334082206,0.6417470439852273,0.6414921703749084,0.6366017720966419,0.6332782443271412,0.6273492792238512,0.6222054993359467,0.6195079655781701,0.6144233366619357,0.6106463785211934,0.6066621049810503,0.6030130863045912,0.5995971329262831,0.5960928396375103,0.5918187767827504,0.5838791472473969,0.5903477807854048,0.5901920329665062,0.5801603752267642,0.5769789924482406,0.5799588942751469,0.5703452460773695,0.5711545457580837,0.5723769008737774,0.5682818054983794,0.5710776400072776,0.5669031611230262,0.5611671580259768,0.5655924672245426,0.5630441098795282,0.5673413904200181,0.5657893168883341,0.5678899893531301,0.5666361627517521,0.5738370755201532,0.5676923373056323,0.5650006305388338,0.5675731189976783,0.5704315311585479,0.5699824940704356,0.5734836329046968,0.570822171702916,0.5723159853194979,0.5786310928875494,0.5732250961849107,0.5805584323652742,0.5775780191696741,0.5835002088161453,0.5840110016686685,0.5862170090102475,0.5939447530767125,0.5925185818809282,0.601302205371384,0.6016780046084012,0.6091251120007916,0.606201023613295,0.6093253898938418,0.613988557826088,0.6169746851222155,0.6205851349630108,0.6275475574108482,0.6293114022746051,0.6321333626175015,0.6374880253158274,0.6440860368423804,0.6415548412522608,0.6468693737854144,0.655279310215527,0.651462812194528,0.6652395719366279,0.6634035822946311,0.6703427749137547,0.671194338555182,0.6745028780659376,0.6807571279255848,0.6845160149421919,0.6899759415440831,0.6877904993632964,0.6890059952916723,0.6938535784332124,0.6916384304592459,0.6932369416768832,0.697010534024298,0.7048182345956566,0.6989555630144481,0.710245735195816,0.708311060110198,0.7079313436822506,0.7085103123195,0.7100043625779032,0.7063608081542003,0.7108771353325409,0.7081776727515006,0.703692745473968,0.7081015795571054,0.7076084213625082,0.7013540646224639,0.6976487690858725,0.69914982402902,0.697849272824812,0.697025079416253,0.6887000041731726,0.6862804797991959,0.6870727356144133,0.6778695719063883,0.6777799738026093,0.6752435873619331,0.6646544883118318,0.6649252503996244,0.6584122756107949,0.6540394042553374,0.6466518647664351,0.6475033396287451,0.6412512060309428,0.6345763942650379,0.6318625499998385,0.6236601272414488,0.6210245772454404,0.6122660966647785,0.6103121198140794,0.6047751299771238,0.5970982799233501,0.601812690296262,0.5882530878589058,0.5858893221199767,0.5822692432864328,0.5752620120820761,0.5708511094733694,0.5675395099683308,0.5634243700296367,0.5582861202914208,0.5598123638467659,0.5533286731469288,26.58730561175761
test,sample_0028,0.49942925689339657,0.5043937828813642,0.5016147779674309,0.5093698450226614,0.5041037248138087,0.5051371924116766,0.5030855652927797,0.5062565566816751,0.5084076153318323,0.5069306907332561,0.5038874806183097,0.5088621488166998,0.505143979535323,0.5048251152084506,0.5084923113245239,0.5046221630915886,0.5094863235276824,0.5125932292535248,0.5091113367230741,0.5108663454067225,0.5099822380838361,0.506262771846874,0.513704001432025,0.5073969584404965,0.5102566914674329,0.5143274106270223,0.5122608450090559,0.5159794324402518,0.5149435081144081,0.5141751964040371,0.5159995332323277,0.5155374289196514,0.5208711556172392,0.5195811380670768,0.5166243046550191,0.5186791381485437,0.5213707325881297,0.5229712585206351,0.5245029998486708,0.519005700370282,0.5265111737895315,0.5225922722389365,0.5211630012049963,0.5255243819673547,0.5254674965111816,0.5255343009478429,0.5264019058214477,0.5284433239697942,0.5299322104315538,0.5323904665158266,0.5309679153264008,0.5325491234932365,0.5395473282541197,0.53084447068609,0.5369638376466398,0.5365966453791408,0.5411266208180671,0.5427303596003297,0.5460775157519646,0.5469034899720715,0.5507696404756238,0.5510312366472709,0.5515033806585198,0.5548586329271282,0.5591681800435001,0.5642452705809192,0.5701995840328732,0.5644566494044228,0.5727803258871349,0.5738156898581517,0.5782393059637887,0.5860817575185959,0.582016308494367,0.5878491906611639,0.5933775478107158,0.5990835850835129,0.6049201659789843,0.6085204225077022,0.614690495275906,0.6161620335899594,0.6238791385305349,0.6260160676585362,0.6348681670001921,0.6395924580664158,0.6448189038502534,0.6534415160915518,0.6617336513081555,0.6674534945783722,0.6729238077830317,0.6806974968181638,0.6860499779469931,0.6947330121381583,0.7044216301787498,0.7100173884281272,0.7162352305990219,0.726510697306797,0.7340604965008725,0.7421629360573574,0.7524889885201027,0.7564485940961049,0.7631215443742606,0.7686762733708719,0.7792134129416444,0.7861701793081521,0.7896893942819556,0.7971607467146451,0.7987360230304676,0.8078829476726269,0.814610648835314,0.8170454458497511,0.8263628257453763,0.8342087015137052,0.8360946887223893,0.8428796128775531,0.8481627406169004,0.8505037715672671,0.8589936756201644,0.8566939497945427,0.8609327102055746,0.8634322415659004,0.8651473402291021,0.863525465118324,0.8627420912570016,0.8690839590661843,0.8722047229279946,0.8711438577106096,0.8671826980071871,0.8710637688581097,0.8685065270601567,0.8650305865325787,0.870031454756658,0.8643514586121136,0.8667990986821696,0.8569422187839878,0.8572762271079781,0.856889474550981,0.8536133175707671,0.852356915031862,0.8476353498923411,0.8421187649133265,0.8359923764314329,0.8360703346265839,0.8281203846915662,0.8267365045947896,0.823155361314223,0.8176833206876022,0.8071021071136537,0.8077305357598581,0.8024027485295203,0.7917693454680916,0.7919263682912241,0.7854906859029246,0.7803352919275004,0.7771242977392588,0.7675108938548766,0.7677206398113207,0.7604666235659552,0.7551670267511594,0.7493698378010102,0.7461322529160638,0.7407965148338298,0.7289735709610564,0.7261125337122859,0.7224498240416757,0.7131882060902736,0.711762638705256,0.7012340486583782,0.6996985288721107,0.691047550046099,0.6869994748133719,0.6821932862940836,0.6761978449578803,0.6737110225206855,0.6633860440229112,0.6584858432229932,0.651916363303593,0.6450907996602904,0.6459189768135982,0.6371206419274577,0.6350901457304765,0.6289126774246749,0.618395136244215,0.619357513664054,0.6184560396268274,0.6083682345658987,0.6024729213505082,0.6029048068847271,0.59506402576924,0.5898143021162261,0.586953154156311,0.5828884219165014,0.5711723822327737,0.5745202162831922,0.5687694479811783,0.5652135665862409,0.5618757729185914,0.5602126863957488,0.5553653509221192,0.5481030838311836,0.5499739354680497,5.303883806763126
train,sample_0029,0.5261515878132091,0.528721226809158,0.5305588406932384,0.5338758789495649,0.5373319114328045,0.5361567999909238,0.541639239442109,0.5413139857056185,0.5466144884901277,0.5447619959178206,0.5481467152417726,0.5550843905587248,0.551683077336969,0.5579133020333747,0.5582994663128651,0.5624558450460795,0.5691042408955943,0.5721634862528162,0.577661773867995,0.5784295303992937,0.5781850112572599,0.584482080876476,0.5859639503675478,0.5976803109657446,0.5996176167848544,0.6035255704151677,0.606541055568209,0.604002421954682,0.6135964582765574,0.6160660586952333,0.6188077533935064,0.6236777085241293,0.6304275598580624,0.6293127784716865,0.6346360813235375,0.644180469577308,0.644660222185689,0.655319079978768,0.6512021494612561,0.658963503257528,0.6661079833234189,0.6703906619773574,0.67681305317533,0.6790080142802146,0.6838949044788902,0.689474375872891,0.6964191120785085,0.6933415431645008,0.7065214597136762,0.704845665063353,0.7138268034380436,0.7169420573110349,0.723021330878864,0.7254767245796507,0.7324451735284104,0.7349012358652465,0.7420031425630249,0.7433496396741226,0.7501454320195478,0.7530216925006736,0.75880883942071,0.7647481732949313,0.7682294697105737,0.7689597755410589,0.7696910853543966,0.7750573469572368,0.7782069663293476,0.7797219268197921,0.7837734248346688,0.7859790045031259,0.7910884243897013,0.7889096747927338,0.7913548791772813,0.7964646173707278,0.7900568137899526,0.7911115567372751,0.7935797209202868,0.792668741620151,0.7926096630764307,0.7913347679859413,0.788773454425714,0.7902063177190319,0.7854832867158945,0.7840128226808007,0.7803813900317988,0.7761255836702858,0.7765775020568133,0.7725007119754654,0.7664032591613006,0.7640528282108763,0.7551071704069827,0.7538650367876893,0.7479846260332716,0.7444551567663604,0.7362139733414091,0.7278746677986122,0.7288800191788043,0.7226014163240934,0.7180342185401383,0.7092277799180831,0.7048684209797272,0.694731049249963,0.6908461411806142,0.6854195443138058,0.6775240862308665,0.6758956898317221,0.6716869561767054,0.6644838850848054,0.6590764005705451,0.6566165178667325,0.647205796668519,0.6416472387246007,0.6374006147895862,0.6370977603520078,0.6314768988464853,0.6297140402252603,0.6285495827916007,0.6282866342048006,0.6209470153893824,0.6154697014814388,0.6158921383120636,0.6154595959778131,0.6079705758609626,0.612186090943839,0.6073261254510361,0.6102792551037826,0.60629423623538,0.6072009435578465,0.6061116104473462,0.6063409275945149,0.6086432519838727,0.6116833994099709,0.6100237025649329,0.611743255772865,0.6082329725414439,0.6079753067012907,0.6117885123594148,0.6161270196732965,0.6145894241061411,0.6164938928936681,0.624072584810108,0.6191963428430126,0.6214592194579063,0.6200894477390178,0.6221279380198802,0.6237504447091353,0.6304740106247759,0.630397058184847,0.6334378884272506,0.6354849606929639,0.6355525930619084,0.6348104899755005,0.6430484150734227,0.6344820625516512,0.6393572799354856,0.6419279151432054,0.637116296931769,0.6403281826821335,0.6410961838683197,0.6383351403901105,0.6339497588128629,0.639154262087232,0.6356735898343302,0.6372842379842361,0.6350482603685375,0.6356503527377751,0.630861017575708,0.6303096436522024,0.6279338887786978,0.6240091646715473,0.624892866930059,0.6200961748178451,0.6232279939932788,0.6175334378657034,0.6169829854268113,0.6149664952371346,0.60785578557059,0.6020982801507081,0.6012303385860096,0.5988720858230309,0.5936237455563088,0.5904563381592772,0.5853886034496724,0.5887265326013944,0.5835282737693002,0.5815250513898876,0.5755863481752014,0.5740361403331508,0.5693811215958544,0.5622664578493553,0.5581055350934769,0.5551634646424779,0.5551396604420397,0.5540019170822444,0.5519098052352516,0.5437568872240883,0.5404789520814088,0.5460112852479012,0.5339134940503618,0.5321315317138671,24.664933002829784
train,sample_0030,0.532270386136987,0.5372738514040081,0.536445012193618,0.5386693224342364,0.5464822808325357,0.5475934381879286,0.549660489294182,0.5505177386514296,0.5551952103740654,0.5560713356378781,0.5596295641126764,0.5631970912581482,0.5681005663661287,0.5692061238080621,0.5693853870377064,0.5734628674930928,0.5754991059503008,0.5840723599771668,0.5857367191322325,0.5859591060829821,0.5915121143942565,0.5917928288298485,0.6025791441288529,0.6004896095452794,0.6070399524051179,0.6125774800542787,0.6125438774186176,0.6156259820738528,0.620013392225477,0.6230111230775145,0.6319660554623403,0.6324652719253683,0.6278237167694773,0.6351418192578531,0.6357073896232075,0.6361541981068493,0.6453578801341244,0.6415912566201967,0.6458366193665962,0.6452727359408574,0.6559208236206597,0.6539349308287302,0.6545225820230877,0.6535657408658523,0.6646956345170133,0.6613327393452291,0.6622035128755331,0.6651248715258486,0.6604899877810948,0.6692125545010823,0.6661742356003805,0.6689290353840053,0.6709782633083441,0.6725063947835394,0.6695503069944372,0.6787601040706022,0.6746806686477254,0.674858826495563,0.6760724238605373,0.6750455846020779,0.6763173010039907,0.6774122364339034,0.674672954808183,0.6812223702652023,0.680810815965071,0.6780456410935595,0.6831343734073484,0.6780680541159733,0.6832804776699425,0.6777038622511605,0.674950607108198,0.6802312289269995,0.6796568549599133,0.6780229900044221,0.6789094412099084,0.685226951168289,0.6801330467646063,0.6775068296597431,0.6782903304110187,0.6783109479401594,0.6778257900707549,0.6754963517439712,0.6793818810221688,0.678488070377608,0.6795213074590766,0.6764106324824241,0.672429437756342,0.6792948816914718,0.6785816680514772,0.6838412563822541,0.6726985646305906,0.6786557779847577,0.675030065938018,0.677308373970615,0.6729175013448461,0.6788111484956894,0.6775506870896615,0.6762730464059967,0.6728276307130404,0.6724679008231076,0.6764676429216796,0.6759981739004213,0.6746722666089715,0.6748712834635292,0.6713502621984957,0.6697826397025348,0.6764460899031878,0.6762016668967067,0.6756421518992195,0.6737337862615533,0.6746314481306233,0.6721789677981318,0.6771689464612747,0.6804245180966729,0.6813527782618833,0.6789651517636215,0.6840535135496404,0.6806337891548271,0.6761840329666859,0.6826830065047859,0.6814369284745775,0.6841657851195677,0.6806902614120666,0.6871101734583116,0.6878061518200921,0.6890231347580255,0.6853443051642074,0.6885914573310563,0.6917822566322813,0.6881399209895364,0.6895871846135067,0.6935010643290509,0.691575622994621,0.6927624750893762,0.6994525069286585,0.6951720733517408,0.6987599186297045,0.6990184202369221,0.7010432481760189,0.6965166152448272,0.7009504130704567,0.699009681370315,0.7003690497038606,0.7053695964064491,0.7044348945844844,0.7059706620470987,0.7073821860309122,0.7029269577238074,0.7083818950957437,0.7035306928391651,0.7087795927058014,0.7043697644478161,0.7027631079357384,0.7024597358592128,0.6984260983269104,0.6993279495189225,0.7012786989171919,0.6947968973541776,0.6970090517566078,0.6912273426889943,0.6903632254823362,0.6896007160269886,0.6870485552180952,0.6830473578673952,0.6798489429567682,0.6803117907009871,0.6755438132319546,0.6738651606301262,0.672629866271379,0.6689672981042922,0.6656816065888941,0.6607317554569256,0.6530885145798968,0.6511906509653674,0.6487049068804109,0.6448666865112972,0.6352045688638621,0.6356729999302502,0.6286943439221386,0.628082297515669,0.6207263106887773,0.6211279421423255,0.6108771228069377,0.6102475898630856,0.6054754108207541,0.600241540557902,0.5953506284065438,0.5934296943248264,0.5864253882380932,0.5816222859224938,0.578490750812944,0.5748534666992415,0.5730756102886927,0.5691391989219158,0.5634780668919115,0.5632548219842168,0.561450935612633,0.55432378698341,0.5511623211890101,0.5450661162939608,21.708497613676727
