partition,sample_id,1100,1105,1110,1115,1120,1125,1130,1135,1140,1145,1150,1155,1160,1165,1170,1175,1180,1185,1190,1195,1200,1205,1210,1215,1220,1225,1230,1235,1240,1245,1250,1255,1260,1265,1270,1275,1280,1285,1290,1295,1301,1306,1311,1316,1321,1326,1331,1336,1341,1346,1351,1356,1361,1366,1371,1376,1381,1386,1391,1396,1401,1406,1411,1416,1421,1426,1431,1436,1441,1446,1451,1456,1461,1466,1471,1476,1481,1486,1491,1496,1502,1507,1512,1517,1522,1527,1532,1537,1542,1547,1552,1557,1562,1567,1572,1577,1582,1587,1592,1597,1602,1607,1612,1617,1622,1627,1632,1637,1642,1647,1652,1657,1662,1667,1672,1677,1682,1687,1692,1697,1703,1708,1713,1718,1723,1728,1733,1738,1743,1748,1753,1758,1763,1768,1773,1778,1783,1788,1793,1798,1803,1808,1813,1818,1823,1828,1833,1838,1843,1848,1853,1858,1863,1868,1873,1878,1883,1888,1893,1898,1904,1909,1914,1919,1924,1929,1934,1939,1944,1949,1954,1959,1964,1969,1974,1979,1984,1989,1994,1999,2004,2009,2014,2019,2024,2029,2034,2039,2044,2049,2054,2059,2064,2069,2074,2079,2084,2089,2094,2100,target
train,sample_0000,0.5320387983878837,0.5317489925317604,0.5339128172829852,0.5423584648263118,0.5412066011449179,0.5423718050434291,0.5422606078253442,0.5466349691580121,0.5546859290962923,0.5557022737619898,0.5594340145005483,0.5585430802675414,0.5652039610238584,0.5681824077949548,0.5685005170013615,0.5747921983526139,0.5764426192379357,0.5787362475596555,0.5814616338839149,0.588268448635815,0.5914087868500834,0.5909464220166579,0.5961532176843548,0.5986848757933153,0.6036100757116216,0.6047718115969656,0.6113844574562665,0.6157257697852899,0.6144861426631884,0.6232043933370344,0.6193484821166666,0.6272622731739562,0.6250677328890817,0.6331934604402575,0.6354179728611851,0.6395063627117887,0.6417451652783221,0.646098655723286,0.6512552900515924,0.6507676129466389,0.6563668070027013,0.659825173958701,0.6599380887108773,0.6618089755195729,0.6651106000266704,0.6721378776294494,0.6699293028514884,0.6715352088604691,0.6738797028500547,0.6775158086527915,0.6830580170282725,0.684249417253482,0.6840792042049157,0.6856948799951572,0.6907616935332209,0.6873453406261618,0.6973064498188074,0.6931192701577797,0.6981012949368918,0.6995459006994069,0.7023808006202737,0.7055555486377669,0.7060764468541167,0.7039649904958476,0.7060676000321409,0.7072960296965543,0.7126708137794444,0.7193380997338203,0.7133261334427468,0.7198469080430466,0.7181672023393214,0.7205306203548456,0.7224047737580179,0.7280733975425913,0.7244673718107175,0.7244398993191798,0.7285332262865655,0.7273097804810993,0.730799014211649,0.7373045581712898,0.7366728977496348,0.7397390783533729,0.7387293401738141,0.7415722872089779,0.7446297143064151,0.7467143842896475,0.74556115928677,0.7491852268132193,0.748807865653251,0.7524813265911058,0.7494630863548492,0.7534975736450957,0.7517889992339709,0.7562343379900892,0.7572665336919098,0.7584994969971439,0.7633298997790807,0.7600315167990253,0.7615618375264226,0.7670533321986508,0.763002955261646,0.7661129599486922,0.7687409406577805,0.7649175984130936,0.7672350024791215,0.7694994272668529,0.7667965823194837,0.7663682674745054,0.7674581427952527,0.7630941227025018,0.7632799178567957,0.7685537448504259,0.7635892463456644,0.7602069668964748,0.7671647333406288,0.7621588718874313,0.7620253786431842,0.7652734549876996,0.7566859536636059,0.7542538257309206,0.7580025545293276,0.7534114082208647,0.7478256914186685,0.7469591379720352,0.7419861601293555,0.741589016999457,0.7372989606797858,0.734677015150237,0.7317937109365329,0.7295638843320371,0.7228225945844726,0.7163588436059634,0.7177326769907988,0.7119173741072874,0.7082147666968572,0.7034360426788788,0.6990627736392753,0.6955731636449078,0.6919056253916611,0.6901827546171355,0.6824263908647661,0.6736310896102518,0.6772883563476408,0.6700514551237231,0.6652379375134728,0.656722387797453,0.654385015444051,0.650351152606443,0.6461229894005167,0.6402741544337385,0.6342835049306562,0.631195811085529,0.6292711826057082,0.624048077093849,0.6219312795589516,0.6154164196954253,0.6131374361604705,0.6048931810574429,0.6069905854315976,0.6013395409821269,0.5894425680133212,0.5909145847911453,0.5871725052589475,0.5813733399059945,0.582424438386785,0.5797758653676097,0.5743501876603128,0.5755677670560277,0.5735507568043696,0.5655865054580475,0.5650152901158243,0.5652521496841976,0.5547789085630171,0.5529758175554825,0.5545816398535452,0.5498215324601795,0.5480348383122663,0.5501273650226605,0.5447171444048242,0.5362343020016084,0.5468118764532015,0.5393784643149152,0.537383426820482,0.5379597399323718,0.5359295471886679,0.5318484698069855,0.5328564179245638,0.534978112527804,0.5318815316232447,0.5229363817617714,0.5238959344564287,0.5265735986205551,0.5227083438315718,0.524169008043765,0.5150764306845897,0.5209043927932749,0.5124143132189244,0.5168271651150806,0.5142877705322046,0.5155548005896763,19.87608100073103
train,sample_0001,0.5098015129342469,0.5145379494185888,0.5138285617065811,0.5179800873584884,0.5123530300787053,0.5162056289900347,0.5199786972025643,0.5169906466304164,0.521977791429824,0.5275227630922934,0.5195934060632829,0.5235947139510281,0.5278108929583857,0.5248907839587656,0.5267084706789983,0.5290239014208032,0.5338251291944982,0.5401757137358226,0.538257535256942,0.5394889992190188,0.5423449888633939,0.5425923782924473,0.5426770802011791,0.5429479701697445,0.5500531353993742,0.5526285777600969,0.552029223338055,0.5543286446916846,0.5608693818944652,0.5634535137414717,0.5645414900360146,0.5665215501353736,0.5662132333286504,0.5712591247435651,0.5775640936002264,0.5780883458108749,0.5814655307207021,0.5867068113834011,0.5886644649888749,0.5901797788929389,0.5997980720312783,0.6001569974914136,0.6049820980533609,0.6086101633800193,0.6061734853940463,0.6216687152956972,0.6245255037927124,0.6223836241082725,0.6319786640628223,0.6325860069845183,0.639507574447687,0.6421311669637507,0.6547756260076965,0.6582211387453281,0.6608596724462872,0.6636442809830349,0.6714095029272957,0.6722133687247793,0.6769824227090344,0.6869044688121573,0.6834278454505754,0.6929365247823379,0.6992266466497563,0.7034323985243344,0.7074837653674231,0.7131035951331529,0.7204718988167313,0.7255386063177292,0.7278927843994198,0.7342707167114879,0.7408589110446493,0.7423391785302456,0.752055729005067,0.7495788576784005,0.7558662127448603,0.7599458034876374,0.7648407252692023,0.7707809521569327,0.7716885667383634,0.7773083524381093,0.780434879197665,0.7842648377572701,0.7896817318795402,0.793275400859963,0.7959359568044051,0.7955355452977106,0.7987725566186152,0.8030927850204701,0.806469660578488,0.8084275581473302,0.8142078101771828,0.8154362266403593,0.818634003043428,0.8174090898991568,0.8220500787066323,0.8260795765808024,0.826579771827552,0.8231055178211211,0.8258256274418254,0.8283226557898357,0.832536634457878,0.8304335186194308,0.8315638963546059,0.8364132622571976,0.8334638249252577,0.835930720777621,0.8278684622806562,0.8330359529117861,0.8343609335253319,0.8353106784706761,0.831757210442499,0.8266161475054297,0.8296706377549136,0.8296770887108728,0.8281572615510016,0.8224624238913179,0.8178171522408942,0.8218324203624616,0.813686507497339,0.8151951817776428,0.8158088983755574,0.8105990354999626,0.8061764838051475,0.7981930419512777,0.7969727231701468,0.7924385474123425,0.7883898614754365,0.7844985951782779,0.7787718111792759,0.772516609821148,0.768419918506807,0.7645093543296251,0.7596860733987636,0.7507320434996354,0.7479014037600472,0.7378352326339681,0.7315978853344701,0.727718622230315,0.716987336416361,0.713425534146669,0.706326771630851,0.7024381013416783,0.6927638147540001,0.6876439517877208,0.6833274475259621,0.6790174851842357,0.6714356971717785,0.663636923632524,0.6584510999847113,0.651067134770132,0.6448185325345204,0.6371411425245939,0.6375586452890813,0.6292736785323192,0.6277593505952394,0.6168475943714721,0.6087462657355489,0.6062708158588491,0.5996220433900837,0.5951790626494464,0.5930541454168865,0.5888766523922507,0.5827643699905611,0.5789387343641631,0.5787356535758963,0.5758199732399452,0.5735640657741116,0.5610140048120749,0.5642962387197777,0.5630278353187301,0.5577957099151505,0.5527350362066669,0.5539907269198115,0.550205999554273,0.5467245896638202,0.547326979015972,0.5438154967207358,0.5461726763258338,0.5395484363817896,0.5386269266105704,0.5371522726854924,0.5345955938827051,0.5331399889830086,0.5307986847672567,0.5317609257683844,0.5276658808618263,0.5255199693929591,0.5248212910948789,0.5267601641931656,0.5188344942904803,0.520051457955651,0.5222443130689263,0.5190367893328957,0.5207237313855939,0.5183580287683013,0.5179670083022675,0.5216867195078556,0.5163716747134125,0.5200469178276068,0.5196458572834864,16.317627188182165
train,sample_0002,0.5661315606255455,0.5736018345822251,0.5798315259373534,0.5760486989913514,0.5880086841358088,0.5850187155041229,0.5954198665836602,0.6022731893538966,0.603655142428861,0.6107982556787633,0.6205573584295268,0.6223739521237244,0.6292394124746051,0.6321650421083639,0.6361195219138587,0.6457060113246265,0.6521297079562562,0.66057108483148,0.6609315012878655,0.6675234745199448,0.6752083499816321,0.6774981230310916,0.6831792011015101,0.6873984350155077,0.694441678767783,0.6985798844418596,0.7043897839843762,0.7079595112245832,0.7154215652082504,0.7209475529002862,0.71862954046147,0.7237827515231344,0.7288356216682351,0.7298215980623104,0.7382209609716922,0.7364642621239805,0.743005156452525,0.7455894146788727,0.7429659412800463,0.7480890567890494,0.7513387496648285,0.7500633722289374,0.7506192128046674,0.751968633605584,0.75082652291287,0.7483196539095521,0.7491674459462375,0.7418778191519719,0.7473174586326056,0.7429279799522874,0.743155745459948,0.736429344676932,0.7325920300961108,0.7337054264628751,0.7357851436092304,0.7250456111800438,0.7281432868589399,0.7241194387509438,0.7184172754270295,0.7110412726678546,0.7118387934515022,0.7141041182197166,0.7129259625457984,0.7054470579204873,0.6976724468940176,0.6943024941607673,0.6938315059072053,0.6924537642903159,0.6863505212646288,0.6862347551977988,0.6865128243602422,0.6798277091736342,0.6769503876018201,0.6725008871581392,0.6778073276171721,0.6749382041166789,0.669349335971045,0.6707349523344039,0.6706128887942476,0.672613423269651,0.6708907580740132,0.6702153143469189,0.6730655486969688,0.6742897496282296,0.6710612573107698,0.6745860837308575,0.674430722125247,0.6750681658122342,0.6797653847903086,0.6819328028444451,0.6809335586718368,0.6830679978145086,0.6880922320925985,0.6924326444543067,0.6910547619244151,0.6958912146670961,0.6973366438815201,0.7042789652764275,0.6997831732480896,0.7032735477922631,0.7066552778639686,0.7109483182864562,0.7112636159969271,0.7161881568422741,0.7207145942656666,0.722916096182664,0.7261929836489445,0.7253155962209462,0.7232114756193132,0.7304164188552116,0.732922735028527,0.7322955425103213,0.7316475484915704,0.7370918786873482,0.7373365340165355,0.7432852551730688,0.7340731703069934,0.7320678954778254,0.736762065715929,0.7364607259406959,0.7332392313967875,0.7338313241866798,0.7309180857024211,0.7312787744018787,0.7258839494486289,0.7237167886835705,0.7174011107675955,0.719824056639271,0.7167742807318227,0.7133418063632535,0.7062028155351032,0.705830423409813,0.7003773402344857,0.6940096688562027,0.6878708662089739,0.685944489529052,0.6850436191394481,0.6762186535072648,0.6714069439634629,0.6689170300301804,0.6619783690712844,0.657598622814203,0.6539403251700855,0.6418556536845512,0.6415843358407264,0.6348066864137484,0.6292151618377166,0.6209812429448773,0.6175982682287845,0.6106646052118675,0.605831884388198,0.6019218485633325,0.5968902384930381,0.5900158448166295,0.5867590383267514,0.5842310311126621,0.5817259749211634,0.5759347356630081,0.5671165401556768,0.5641320502609551,0.5605232872049328,0.5582342212535368,0.5537804136189659,0.5478633223575615,0.5470229014251066,0.541712540698795,0.5351512814625872,0.542833872108076,0.5351350845427338,0.5370428783777597,0.5290724408399471,0.5275303097481006,0.5255232594366172,0.5232443114426921,0.5220571041617255,0.5203738157603353,0.514955201458883,0.512523459593603,0.5179773594166274,0.5177438555193237,0.510646890427628,0.5102579317701328,0.5139118429601659,0.5081886405629421,0.5112090001893815,0.5099209606204225,0.5084382065702479,0.5077495979946807,0.5119080604097469,0.510597168272603,0.5052583081416786,0.5047997292500619,0.5077313416239226,0.5064054313083192,0.5039715043989645,0.5055036141323819,0.5078713899401338,0.5070017167189788,0.50483248081008,0.5098612158396636,27.037873389069617
test,sample_0003,0.5298515435208342,0.5313636384607203,0.5361583949031079,0.5365338102982184,0.5345184790112645,0.5433556866172817,0.541832615768976,0.5465820159860867,0.5455009457754151,0.5483668094513102,0.5549390836668197,0.556526725187795,0.5598297080188792,0.5632705376435295,0.562718006147411,0.5693832167305253,0.5685507718185385,0.5806894493204355,0.5758487443661073,0.5835777412253609,0.5900190075663942,0.591421281385149,0.5944789758322869,0.6036719934436666,0.6028617910589555,0.6065248071315789,0.6139000365257604,0.618823217096646,0.6225567945948157,0.6285459506526606,0.627967366325327,0.630857296560837,0.6355679676078962,0.6440576193084043,0.645144312453185,0.655377303421202,0.6574088389000915,0.6656525885923585,0.6603845203006143,0.6716516908037604,0.6778177574496596,0.6850812025876344,0.6881929166740053,0.6901698456929461,0.7017105872751408,0.7092187498896207,0.7069694837724612,0.7191189994310989,0.7229580073180405,0.7292565183838512,0.7315193433431209,0.7386630663409617,0.7426731253649292,0.7495921840840505,0.7541311714959058,0.7569649963292617,0.7674498655828369,0.7640631993257632,0.779711664986819,0.7738291228583991,0.7801115181915195,0.782155612483749,0.7920793297825133,0.7959218226071546,0.7994402460581649,0.8028842053051579,0.8080899630358942,0.8089533527467327,0.8142207346340176,0.8140358495315265,0.8240852444614718,0.8220145568315717,0.8177081674154254,0.8262653893900048,0.8246468483624176,0.8256926812991026,0.830683668722153,0.8265923411321436,0.8257598227802505,0.8257877276356413,0.8201766604212277,0.8200723504198442,0.8251971094228064,0.8190885394076007,0.8214430883230981,0.8166406255950998,0.8154443423118365,0.8066240111409472,0.8001625766386838,0.7987682045584718,0.7955514639929349,0.7936175328833739,0.7916735314882798,0.787000656904878,0.7797215954911574,0.7741010976528482,0.7697830603952281,0.760127879095513,0.759475232465399,0.7525814024354678,0.7477480725388568,0.7413682854920015,0.7385298388403752,0.7275414621873211,0.7244354237383039,0.7207037456085357,0.7114986308260991,0.7074823300239235,0.7001023848050166,0.6947314198427695,0.6910063660115823,0.6862020095600252,0.6809475308698261,0.6717473762539942,0.6662181499194273,0.6618758968252805,0.6591946885466097,0.6549857354255055,0.6503702891059127,0.6460516268926149,0.6391267350568941,0.6379264449796369,0.6339101955424578,0.6354157155078651,0.6305120356932686,0.6205460467676381,0.6246484020122236,0.6201151829362173,0.6201893198329806,0.6160853924855385,0.614552069893588,0.6114795176746741,0.6056858907767871,0.6091768760015589,0.6092002512668083,0.6031603875230683,0.602537126556614,0.6022061929545957,0.5980775334296633,0.6047423100910877,0.5945130095287127,0.5988573255538193,0.5944673252585926,0.5989600527887747,0.5919533329445783,0.5921595772085912,0.5932516938213379,0.5972981747162669,0.5911682296874102,0.5909664756887806,0.5917109731658535,0.5909688091242438,0.5891811726353188,0.5896398416332953,0.5921908049228687,0.5894679668356088,0.5794683454549281,0.582930577802254,0.5866834245442704,0.5847347508389742,0.5789942575067915,0.583470205051652,0.5782869584115591,0.5754323537629178,0.5835112812639645,0.5755947263224295,0.576776536453988,0.5711238728941908,0.5716053616630437,0.5717537560768573,0.5676565534840522,0.5643660336911002,0.5657465918337364,0.5620415715846296,0.5634171235606716,0.5591149570151653,0.5611226761219918,0.5507246791608659,0.5514862575841195,0.5498865325318182,0.5512154436672816,0.5465363847210094,0.5448646082224926,0.5434411626746601,0.5440019384858387,0.5398340829374559,0.5327331711549294,0.5335343140237967,0.5324159897397314,0.534576030333973,0.5344442986256989,0.5275871423745915,0.5281171478928356,0.5295230532167157,0.5301043816719379,0.5247087793897716,0.5156433596713981,0.5213231451710182,0.52042748546585,0.521422896380904,24.6544384621781
train,sample_0004,0.5732237925736303,0.5674794453712995,0.5791873292602083,0.5803810767509541,0.5881503756362765,0.5930936204040966,0.6007416313510751,0.6034230294953727,0.6122302762436076,0.6145826180313453,0.6251365837761635,0.6245440396400866,0.6367953207546609,0.6390185549852304,0.6434944230512848,0.6573288331126973,0.6582861399293034,0.6670880085366434,0.6700078237748422,0.6788990676434713,0.685006514248194,0.6903510074831407,0.6994310512271283,0.70176027265921,0.7124191588768364,0.718879495769877,0.7207829313273474,0.7247844058489179,0.7375411853881824,0.7382651397414373,0.7457080462771835,0.7473048045058831,0.7537795612827657,0.7547195223886732,0.7621539486138617,0.7666596283818143,0.7666380732280029,0.7770025897384857,0.7748040409210091,0.7730379770309275,0.7778487775077303,0.7832948817154428,0.78201770104119,0.7858338837452896,0.7856490916657384,0.7851167838008544,0.7849431765904455,0.7867339250872232,0.7904238418760172,0.7883666932024703,0.7825080494493081,0.7837803192956523,0.783016952779185,0.7797705526842724,0.780758448670605,0.7765718863810744,0.7780829874047361,0.7749744448622804,0.770857225663977,0.7662412684114874,0.7623626845575204,0.7603691800298205,0.7601958404185163,0.7601340914469332,0.751046536544153,0.7529367967538287,0.7493962204758885,0.7415406602572695,0.7456630766071856,0.735350597049531,0.7298712813846298,0.7321671443162396,0.7217230890948817,0.7247836128124592,0.7177435553461892,0.7149366395172191,0.7106630466380237,0.7060349083225446,0.700580164559605,0.6995720001881238,0.6996340170237635,0.6941719259273436,0.6952719687538218,0.6852432842903187,0.6820146640573657,0.6784049659656363,0.6722555672143656,0.6688510077858604,0.665698727384591,0.6667981865206247,0.6600312591095645,0.6535016969377947,0.6528586357104426,0.648548911016986,0.6491462839839571,0.6451318733188917,0.636106791821603,0.6372190893869104,0.6364912179537675,0.6391114969617184,0.6286625736922278,0.626008318263365,0.6234375667731258,0.6246004033669502,0.6203820568119304,0.615042922380764,0.6148319152240762,0.6092266208898159,0.6128184303358696,0.6070206084703343,0.605349295497268,0.6012174681469684,0.6065295444068283,0.6008016773335076,0.601406117414933,0.5971715842214428,0.5973994281387742,0.5966595086601945,0.598780941179667,0.5957945417853341,0.5915923055477527,0.5950074162811892,0.593776876417626,0.5921860696843572,0.5882657637508382,0.5946905373996868,0.5921533283086479,0.5964442439600459,0.5938521570948021,0.5900679148743502,0.5931459307881664,0.5967863636066164,0.5976477310628927,0.595931951718827,0.5987342588471284,0.5968171884716286,0.5991887617449874,0.5967334098271874,0.6020024547653354,0.603881089127823,0.6017064676654815,0.6025917621718168,0.6047098228990143,0.6021092928069866,0.6021724269059714,0.6021686616809427,0.6053814991699148,0.6035182450388055,0.6077980642918187,0.5999937317796606,0.6063226703871913,0.6020120262905181,0.6041679541591529,0.6074678483889477,0.6085527196605378,0.6055230533476532,0.6046920865211737,0.6070369283225705,0.6042693206150874,0.6079579222543258,0.6012430770912189,0.6030666390172814,0.6010478471124522,0.6028328409865679,0.599498179861599,0.598494846479386,0.5984510866113102,0.5969804060994633,0.5892912545703434,0.5906343195914279,0.5919276278481364,0.5900214088823287,0.5827920663070243,0.5823615044245153,0.5773191879024999,0.5780293839008018,0.5762149004232557,0.5764933592036932,0.5681324886630313,0.5689426288414262,0.5639848697151806,0.5681041585627706,0.5596828896704162,0.5596891349017425,0.5557392376549082,0.5531484343874526,0.5497000409886362,0.5478575574960455,0.5483260617987132,0.5479649859968826,0.5413074019690651,0.5375665325063078,0.5375654695989743,0.5348701317820077,0.5332134988481857,0.5287821049381805,0.5275451291099353,0.5292752101556977,0.5254589794379393,0.5216176276477399,34.13951718576387
train,sample_0005,0.5141877187587935,0.5120951973015327,0.5126445811298095,0.5094475120755623,0.5118189036677222,0.5141355475637451,0.5102175424223806,0.5182968215911206,0.51744672818558,0.516232258341137,0.5254065455165757,0.527079233760564,0.5212807189417581,0.5267876745603349,0.5275170447923644,0.5284570446390755,0.5299308501164139,0.5384555618038551,0.5354791678422334,0.5400758259013326,0.5405651156142087,0.5417382932615444,0.5483154152494024,0.546942095541161,0.5503417231073646,0.5578157229980664,0.5606117029144848,0.5585930983556752,0.5667209792117944,0.5705380793662888,0.5775959210326379,0.5764957704821121,0.5875411418904765,0.5877183362231617,0.5942395136378189,0.5947245153133951,0.6029515352233128,0.6125997164612823,0.6178891902619246,0.6257372447226364,0.6320068964173073,0.6359492865121738,0.6435527760893008,0.6498890652843917,0.6577594956943956,0.6614867360013534,0.671852028598654,0.6803139528646907,0.6879645113109643,0.6973082204130301,0.6997450765299975,0.7070443155758692,0.7169130056411133,0.7300942809355513,0.7364227640946568,0.7419473595812607,0.7522219923106983,0.7628448322032084,0.7707509854285723,0.7782062034387498,0.7819292237532781,0.7948040842052098,0.8037375276806107,0.8050875953156859,0.8135023688352974,0.8183820578016674,0.8313953208663557,0.8342667447963776,0.842631636550118,0.8439995307188084,0.8493176235009484,0.8547606314379903,0.8591118467057113,0.8659430153608866,0.8695042440167989,0.8731018932585983,0.8732398699560683,0.8739829545832103,0.873659446575276,0.8806386249759566,0.8807944759127282,0.8784710762823986,0.8748129328375567,0.8797397067376543,0.8708178774423208,0.8782574998056907,0.8766107617458856,0.8683969088755041,0.8646053654105783,0.8662608691201903,0.8589797193591839,0.8532942492615615,0.8453786012265552,0.8410116727445147,0.8392175452759173,0.8306061556489654,0.8289745454998443,0.8182198956192197,0.8109091074706409,0.8066086542570382,0.7987104297711409,0.7969881085747329,0.7868116881795288,0.7779710132362154,0.7719879403921299,0.7624773959552733,0.7568269745434766,0.7498378969717436,0.7439415559401218,0.7410241402565337,0.7324536413538867,0.7221706672644809,0.7131293722866234,0.7085816777126934,0.7034828819225475,0.7024631240069559,0.6844848261829372,0.683467625585827,0.6748785963775251,0.6761622746912517,0.6715361956443113,0.6632164148739059,0.6546861278813372,0.6516427323871822,0.6510579196464493,0.6440784051041655,0.6420986165524597,0.6383542623609586,0.6317985205954816,0.6310448377186647,0.6251549127321447,0.6218492693753714,0.625181486564617,0.622245431503163,0.6188433688224888,0.6139249427911051,0.6142159338786484,0.6104204817950748,0.6060217411633446,0.6094450894270468,0.6019347922576371,0.608899713535265,0.5975895711027978,0.5936749839921279,0.5950875128353236,0.6013634267116368,0.598383399863075,0.5970238261704692,0.5986167764629614,0.588404954133287,0.5916300336175693,0.5903744220939111,0.5896175026723524,0.5880112929523996,0.5887725926467169,0.5861909156020371,0.5841799849376026,0.5827601821794263,0.5776399170593179,0.5806826040015146,0.5803848600545849,0.5770787451830467,0.5794077668301337,0.5714038498228274,0.5753789502811172,0.5700502614461029,0.5713214098471949,0.5734720920496856,0.570609956789834,0.5671479701629804,0.5700374734776154,0.561680795630808,0.5631135794726468,0.5597267286700707,0.5563433640333302,0.5584195012787938,0.5546786207975067,0.5553647133533043,0.5539643404108734,0.5572168127923569,0.5470316114071678,0.5462413003399125,0.5485411833746384,0.5422099924779016,0.5392255374301447,0.5439793896082673,0.5386357660884251,0.5374683961620004,0.5362646015905361,0.5298510785414247,0.5330601669442241,0.5303103160978251,0.5339398378833808,0.5282133367439036,0.5263546722735624,0.5254192993891779,0.5207446409695309,0.5231014250923842,0.5237941970397333,0.5190677262316565,23.982067756710393
train,sample_0006,0.5274798563927444,0.5292960761278268,0.5258194900611176,0.5261936085183373,0.5309630678760161,0.5317952574951774,0.5353293772748191,0.5359391641325129,0.5387294886740029,0.5369905699813163,0.5443507886329574,0.5465703946624954,0.5467571219645759,0.5536276998781628,0.5556263962567801,0.5497835605605457,0.5578901889523737,0.5601588432026043,0.5611169978318664,0.5637434870602985,0.5667268130345408,0.5730214548328133,0.5709560167261055,0.5773348483897456,0.5748731004233554,0.5784070413600461,0.581154484975475,0.5846422418182535,0.5818435952127414,0.5847680929586924,0.5874405429888825,0.5854600643052402,0.587254482978644,0.5963340356232294,0.5966213191302968,0.5948359485722479,0.5889110193289253,0.598384663749568,0.5949994887371829,0.5938615315253691,0.596138814185521,0.597368994817764,0.5953206572723226,0.5991555676331023,0.59498248577531,0.600578663118429,0.5956009916929352,0.598524942571846,0.5980367318189059,0.5966862023975125,0.5968442515937089,0.5990140097685807,0.5966977575271324,0.6001459793610967,0.5954584866158193,0.5961997099086757,0.5978851663076353,0.5892720878456628,0.5954397690084664,0.5976260167619595,0.5945069661706079,0.5931758684442163,0.5928634506015049,0.5876444121720974,0.5959448995367808,0.5953749997547614,0.5947921616156606,0.5994764652045455,0.5987863563524336,0.5961540669909854,0.5991989589074354,0.6013010432123851,0.6037843758702367,0.609757592248881,0.6062484820243472,0.6104501839808751,0.6158513251024537,0.6247666092550872,0.6223786183812932,0.6275054651500244,0.6310495430560704,0.6363712297651963,0.6416117497655812,0.6474055990519934,0.6470058377788579,0.65226929707459,0.663692300949319,0.6701601030348481,0.6759023957519552,0.6781783876419918,0.6837687878219973,0.6949397907097782,0.7032256084031708,0.7083971142731397,0.7124703521977274,0.7230981515201744,0.7321915017008152,0.7381198010893877,0.7409589805989263,0.753407332116934,0.761946571881106,0.7647702788118459,0.7737180220466524,0.7815093134863653,0.7858348247144804,0.796639865753342,0.797930532329372,0.804355684632392,0.8092622967805011,0.8159839709742132,0.8217120257296153,0.8205117787435927,0.8283549883418377,0.8311674950618191,0.8348040065326989,0.8461256759086493,0.8449531264638106,0.846209368380951,0.8479373714521155,0.8503017027497715,0.8481871056151417,0.8503023745728922,0.852264125223712,0.8518670362469036,0.8448979607854274,0.8534076630155514,0.849709546658215,0.8461865424068866,0.8419571098933394,0.8386420696388972,0.836721654479756,0.8309575119907249,0.823328947739955,0.8212591446923154,0.8197341409158438,0.8118811676364224,0.8126989874017573,0.803010331518272,0.7937528329512193,0.7945797469794489,0.7871945084629203,0.7805766015479667,0.7716652604984617,0.7618279999502475,0.7573701197945462,0.7554662907264877,0.7427712248825457,0.7394605559529013,0.7321258217100517,0.72272091624764,0.7196159976804277,0.7134977060905212,0.7097520132800673,0.7019949275438745,0.697631010199208,0.6911772761603872,0.6831911060380977,0.6739297077657599,0.6689627096301717,0.6671391849647859,0.657725640074148,0.6474292528312889,0.6473837390139021,0.6388033190785938,0.6382815113848972,0.6302414367101703,0.6212900653221495,0.6212690730937573,0.6139534597329626,0.6172147393190206,0.6079246155865462,0.6001038523891936,0.5975000741531618,0.5977172145157363,0.5941202351742575,0.5900988757866181,0.5819786982008622,0.5799954459188593,0.5706145914380527,0.57425136728094,0.5694692973875211,0.5649111449611705,0.5639680550586491,0.5578046784688233,0.5555137046805009,0.5532761354458298,0.5494317266314067,0.5490682865555121,0.5472061545083415,0.5367974903747746,0.5404963627758715,0.5341109618591827,0.5326952680252642,0.534082070618966,0.5365184216890684,0.5309134019297255,0.5285087744759628,0.5245866750974127,0.5257516767867959,0.5269272111220582,8.169023700351866
train,sample_0007,0.5278919938413348,0.5280509303485419,0.5294879174658752,0.5321062349897424,0.5363972101130121,0.5383911546481126,0.5452348544822876,0.540917668492587,0.5449791452993273,0.5442638300569652,0.5495459619699362,0.5519075693037534,0.5577117128522004,0.558159181095651,0.559775081463098,0.5653802195566565,0.5673748053084544,0.5671343004990281,0.5709166689408992,0.5762713994838685,0.5779397597087889,0.5843864249443311,0.5804783062069602,0.5895729620849776,0.5903173449765667,0.5945672783170741,0.5942184242768347,0.6000012829496099,0.6002137715471308,0.6033928694244848,0.6058809362934977,0.6074340053008471,0.6090295235638052,0.6165118086362331,0.6159139501357727,0.6169741302801954,0.6181639232027263,0.6254944283536382,0.623361165331767,0.6257398390575488,0.6305937281533778,0.6307713006620819,0.6305217158281844,0.6323760942572177,0.6371470727172259,0.6420562520971974,0.6389442223776018,0.6430502295239409,0.6391434493085362,0.6430019227106396,0.6432556494789758,0.6492519183991714,0.6491868844303962,0.646143299769889,0.6470875061901846,0.6502261836227271,0.648217968138587,0.647095067725086,0.6496838323557124,0.6545075575068185,0.6510302358992595,0.6528536504940812,0.6512509749323414,0.6492102801330488,0.6553839114959114,0.65049391093083,0.6496356508546063,0.6464547108888244,0.65242740414629,0.64990158553628,0.6467010418794481,0.6455195906792226,0.6500232435148067,0.6487979931049888,0.6452470877604655,0.648902421982833,0.6432106638208692,0.645307369146038,0.6475824092661174,0.6385650643446834,0.6380882848336322,0.6407574490830698,0.6384658672297897,0.6380869793926147,0.6332955771505179,0.6310280955045258,0.6260545683559193,0.6280540616711557,0.6286160835934714,0.6276267539627465,0.6264343590437267,0.6219806811838378,0.6192411274448028,0.6182345921175675,0.6161990154013418,0.6155235507560055,0.6106394171625164,0.6126128481419212,0.6116308704095201,0.6066628941243616,0.6073306199853152,0.6103484674645914,0.6081916542278644,0.6032385531092568,0.6081838949104384,0.605108627329468,0.6058079374876815,0.6068784007352301,0.6037190637713181,0.605436071282154,0.6057190589178197,0.6080878276377314,0.6076411496106184,0.6073578185686009,0.6143317060089153,0.611895256879774,0.6135495444377789,0.613747929412075,0.6214286584912543,0.6198336631741211,0.6202026100847291,0.6263419511173238,0.6262969118181466,0.6339581500255853,0.6430045336299978,0.6425305410266036,0.6502772051103461,0.6517441312739215,0.6603180562063282,0.6632392359508588,0.669533825130323,0.6689889737982856,0.6765156537676486,0.6826054710876162,0.6901392100149887,0.6969901645530574,0.7051665552862985,0.71103330860523,0.7079388098823403,0.7152948786191937,0.7236264442263588,0.7291386035721519,0.7346953996900103,0.7396684819731023,0.7403605414415966,0.750265641514378,0.7581026124514081,0.7591715735379233,0.7642139314027048,0.7674186290756995,0.7735097791815289,0.7779424663155401,0.7785396541285936,0.7805749397053415,0.7858823413382996,0.7829257929327373,0.7837961554683994,0.7853664285772799,0.783741457721891,0.7883532857273827,0.7885870110355374,0.7921240896126249,0.7793066381019473,0.7805638231871425,0.7814744426916815,0.7790565792754627,0.7732670442407205,0.7717425092743063,0.764179954232946,0.7638165152383987,0.7608414079340953,0.7533482502399541,0.7533773010836089,0.7437425095764199,0.7388571253862457,0.7288567180471794,0.7312034445039579,0.7210162979074338,0.7196109416079994,0.6998046443557411,0.6994071748757436,0.6959467034990994,0.6897128851737913,0.6794594118868515,0.6779290259754314,0.6661905041094596,0.6621899281230604,0.652044264891712,0.6457130222020451,0.6376763481294863,0.6316334554792455,0.6222741683313878,0.6139711443048502,0.6152704085088093,0.609326237952254,0.6013524634076941,0.5957140669338615,0.5954125366049953,0.5836170525639885,0.5790325266748562,18.86885477177353
train,sample_0008,0.5119700356196221,0.5127977002899436,0.5166155958787491,0.513285699326346,0.5134680784504739,0.5150282232796672,0.5211631427705224,0.5185349250580448,0.5203784059613202,0.520322412150566,0.5217789738566614,0.5185534822381621,0.5237005297132963,0.5280846520659459,0.5272372069240586,0.53082432277114,0.5267805289406817,0.5311543140575379,0.5339590935749009,0.5348209114383099,0.5309122438842615,0.5346546287086086,0.5384060062035022,0.5463065961669187,0.5458055048744471,0.5479114965884961,0.5487858861070586,0.5505747775140902,0.5512048707793542,0.5604578992469531,0.5605809577613623,0.5571204019751241,0.5650526622127205,0.5632412788035035,0.5716071215879404,0.569887303469546,0.5775110541883482,0.5732617715788052,0.583176858162062,0.5835417874807801,0.588879742853675,0.5895103736116485,0.5942562975434467,0.5962656245910978,0.5994053669159942,0.601167876817073,0.6090050143828651,0.6109075293956423,0.6159138959990507,0.6204504461209884,0.6216664544748489,0.6278836138622627,0.6298273362172331,0.6339055385252854,0.6351443777614387,0.6457339082395921,0.6426082837638669,0.6507241167646411,0.6603756976354451,0.6608522417586397,0.6680259793564377,0.6721686259179618,0.6727552772030112,0.6815160430871027,0.6852045679322043,0.6877851937364288,0.6923206005687804,0.6933539816395988,0.7006939032422568,0.7049632677420689,0.7092669586875888,0.7170756153996729,0.7130563194499102,0.7217848735079604,0.7255786492657443,0.7316604669053112,0.7347886884761745,0.7365893417369811,0.7429199931254352,0.7480377899852135,0.7539233845967279,0.7502970882675064,0.755717489485032,0.76577572720026,0.7637975411958409,0.770654617781293,0.7788568925270625,0.7751201177206937,0.7735155350838706,0.784130023892128,0.7869241101072715,0.78901519625433,0.7967960130364687,0.7953050131156827,0.7979554884264715,0.8035822669799353,0.8014988340064442,0.8052883031458926,0.8130388641528178,0.8081660026629455,0.8146190963013926,0.8129213739496624,0.8190012652567376,0.8172745580515504,0.8173758005212901,0.8278431761349041,0.8212358374712434,0.8230853293295988,0.8248069717380999,0.8242035332663262,0.8220664745027305,0.8245928720545416,0.8247347124760372,0.826561075583897,0.824809896435028,0.8217450214588571,0.8242204056393878,0.8212683725183354,0.8154220913655055,0.8162970295033367,0.8080155681104432,0.8121567994255671,0.8110048773915154,0.8054296442190587,0.8037881556596058,0.8011412300360263,0.7943360278372147,0.7937013553634608,0.7874873595349363,0.7837551922043164,0.7787746787719769,0.7723106195056904,0.770315774039581,0.7557645054925777,0.7499214832642355,0.7514873615578734,0.7462716458108216,0.7394169645843927,0.7370722125182583,0.7329548950242615,0.7219695670190842,0.7185426198316025,0.7122737165246253,0.6984731986849926,0.7008327140093894,0.6900508020054998,0.6854643670089086,0.680220714409351,0.6719352624585103,0.6672328020215199,0.6642432037505703,0.6558468249809604,0.6537407005481853,0.6455089603380064,0.6402235560508074,0.634660723727606,0.6290115925788635,0.625549984871636,0.6173776565176137,0.6182887283593217,0.6125150162795663,0.6044057397476369,0.6042307789394454,0.5979964426093621,0.59317294217704,0.5901770927894179,0.5843445685670303,0.5828210152214545,0.5740957610759725,0.5748112989511761,0.5744012357324861,0.571323408153622,0.5674142199299846,0.5590253337428562,0.5601620328217014,0.5530711665172268,0.5559721580589487,0.554229500754021,0.5473494173939529,0.5443882592941806,0.5420131794169156,0.5417342520802458,0.537720590727403,0.5410148660825469,0.5363395173857122,0.5326834344237039,0.5356806126943147,0.5321340145749321,0.5291165898520115,0.5265746792619311,0.5296526215951751,0.5245019878963278,0.5264788433837502,0.5227337416525355,0.5233354663058076,0.5200729975286457,0.5217209778361995,0.5192704358920994,0.5114297877527175,0.5170050779704447,14.81829488781555
train,sample_0009,0.5206790942814687,0.5243590551693751,0.5203846634399303,0.5280139892440179,0.5249352681112005,0.5314561187401968,0.5317623356204447,0.5342132183583936,0.5353790805338035,0.5399415625872618,0.5387812436343259,0.5355736858485493,0.5472865500704427,0.5470602179213471,0.543382784682201,0.5513669436919559,0.5538191915332972,0.5580799624058931,0.5571817597812279,0.5663719117546864,0.5639906203656594,0.5703188081752362,0.565136177861191,0.5787175994409935,0.5740847829530286,0.5800102228912204,0.5791898100711694,0.5829072326555909,0.5880584543150071,0.5921780175948355,0.5957955408279915,0.5978229450292274,0.6008926382831021,0.6037943314773493,0.6067254649686381,0.6151999732781757,0.615152734558348,0.613783769253393,0.6172049733757617,0.624827906407372,0.6298370519191452,0.6303814134786252,0.639913819643998,0.6414305150226937,0.6408255754572192,0.6443941742144375,0.6496369823779702,0.6537396454379263,0.6582155416179254,0.6573216557861206,0.6639192215935614,0.6707487098212123,0.6704573245694401,0.6763032161624858,0.6749405958036802,0.6830107396106462,0.6866722753027232,0.6920501123189375,0.6892747402533616,0.7003207969341693,0.7026821128774342,0.708972769255862,0.7085609185314213,0.7105265738143192,0.7146075607446394,0.7145792047372005,0.7242409151460538,0.7236182334641277,0.7262719846865519,0.7308092923607131,0.7358505559568927,0.7410386064550415,0.735985797185129,0.7396398259899074,0.7456713301991408,0.7486098757264034,0.7508045623248393,0.7494396742342049,0.7549971997997185,0.7505984935095557,0.7572277258916497,0.7537993491690199,0.7565234201925591,0.7565976428132752,0.7576913254909907,0.7567586983126121,0.7603779916858525,0.7613112863921689,0.7589377189972202,0.7620879793069049,0.7617248275273489,0.7606648656035859,0.7586672226385089,0.7613085936702961,0.7574104970933055,0.7569997560318036,0.7573614263295997,0.7552736416168608,0.7540451019335077,0.7549435760480678,0.7548202035135427,0.7550627341750964,0.755595657853113,0.7530507799391657,0.7497168014699586,0.7477219608041779,0.7535680819387631,0.742397831536495,0.7470092828344335,0.7421012408313356,0.7383507144800545,0.7431724868689026,0.7403440727161157,0.7396444376446308,0.735475891397017,0.7339543171496176,0.7336390239713335,0.7354071333618903,0.7275742910077369,0.7325277294573729,0.7259549629395275,0.7211708600288042,0.719730416623726,0.717372951979836,0.7156147903423318,0.712337334175195,0.7119816163051375,0.7094953551058469,0.710707335224159,0.7018456173510795,0.7007973275497756,0.7020561623310181,0.7002035956915558,0.6970218846522358,0.6899978978713726,0.6881358250794471,0.6819705327185243,0.684247828245044,0.6801147185526798,0.6820486727631158,0.6758314485461742,0.6763313593076388,0.6713513701863592,0.6736721278941908,0.6683964025977254,0.6714861513510062,0.6560877024865253,0.6580984246425143,0.6533383929527502,0.6547885389221083,0.650501018752765,0.6486347955967632,0.6395298772180673,0.6514587372295303,0.6425540565068819,0.6380827651369583,0.6372102025391404,0.6339068542452455,0.6278280221116255,0.6259906171333779,0.6213894587562426,0.6228744626411382,0.6170270205127277,0.6159034898866385,0.6140795644861013,0.6085378760251187,0.6064291178036231,0.6043595912549583,0.5985361719711282,0.5986760498722131,0.5923234803019514,0.5887570862600493,0.5903762467371468,0.5860858696634688,0.5841424920718888,0.5808207901266904,0.5747283008867148,0.5763210871012813,0.5729251429696134,0.5710682200491572,0.5695207828823481,0.5630971217672032,0.5620538366745924,0.5547842243001776,0.5504665383523856,0.5526486557701554,0.5543006724251769,0.5462196642137574,0.5416985878211832,0.5444617603675305,0.5378797839938054,0.535793429379634,0.5350882862547893,0.5355326998526083,0.529920123309845,0.5298045037808664,0.5238924480363263,0.5247745907593896,0.5252152109565039,0.5231347873730563,17.046464831388047
train,sample_0010,0.5567459423210261,0.5550335628010553,0.5591348745541365,0.5597287590467226,0.5622200963700689,0.5731615622741888,0.5771252419883159,0.5791855871532793,0.5850046896084913,0.5829914444505716,0.5874739352410978,0.5960065342617263,0.6052239475017143,0.6043773672506009,0.6107246293703249,0.6223089102441418,0.619473400554154,0.62867777310005,0.6292180838460694,0.6373676486958211,0.6407471515662332,0.6423665265150564,0.6542962774143567,0.6528803967620882,0.6613811184152338,0.6657471124440831,0.6681655711828339,0.6757247493640145,0.6809366260380805,0.6872896059140552,0.6892349026592187,0.6957627469676485,0.6952468965922125,0.7014969955948165,0.6981895746627428,0.7044761148669446,0.7065660850734785,0.7064691121935025,0.7144689257439465,0.7197918662735188,0.7183789804624814,0.7183866544024363,0.7240141546482999,0.7297845967912984,0.7268054225502775,0.7254043962642975,0.7273988768351171,0.7264331877285911,0.7249042086560893,0.7310021228811753,0.7275287405449338,0.7332389248679001,0.7332798987145726,0.7333651500046472,0.7273800891215519,0.7297737580575033,0.721508734482769,0.7283261510055622,0.7287658948482112,0.72767965618856,0.7260607508332623,0.7212122233778795,0.7216526830263688,0.7158999183738668,0.7202100451574744,0.7115419381296244,0.7172601876525959,0.7156967179120618,0.7122927345651773,0.710405250015104,0.7107294895794617,0.7061471033981852,0.7076037778469647,0.6996849898217564,0.7007271870173457,0.6942478691224018,0.696542951435322,0.6925042062943736,0.6887589858088182,0.6880635570559908,0.6864267351181362,0.6826780188343015,0.6808489169760197,0.6813915013896146,0.6781322699084288,0.6744841857961751,0.6747445322194416,0.6735088962211393,0.6684534026373427,0.6657148857154759,0.6603971958533292,0.6614263481360466,0.657925852474626,0.6565065418974838,0.6568684363784274,0.6475980935401219,0.6560922259119711,0.644607366731176,0.6447081050383703,0.6448757658478648,0.6423288956583253,0.6402409562280309,0.6441897620765956,0.6307662101761209,0.6371874406411727,0.6406417583655339,0.6347792664055941,0.6350706154081336,0.6288058533593058,0.6319187566794667,0.6343311544946564,0.6331379107056039,0.6315152342478494,0.6333536644371064,0.6263515809589657,0.6315521568423057,0.6300365789553949,0.6268465818160396,0.6330593916087196,0.6290377944317357,0.6295331622642686,0.6234541439252989,0.6286535602309682,0.6316454750433744,0.633250195567101,0.6322738148667314,0.6326158983425479,0.6291077776962074,0.6337712735486396,0.638230008529827,0.6337194594598041,0.6406508383920637,0.6396725523926248,0.636846498860593,0.6408917326110365,0.6466661295325628,0.6438485479009262,0.6452098765607485,0.651543931243151,0.6488885367848681,0.6501151268325743,0.6520772123372882,0.6520026243600787,0.6542134052707523,0.659636766314912,0.6635225056760016,0.6584136419206224,0.6607975633819878,0.6635665450918582,0.6576307202114169,0.6650906338833398,0.6634477171569814,0.663283619043544,0.6594834711496467,0.6673567319285809,0.6649724410268936,0.6618779600703292,0.6633283198528673,0.663476818949372,0.659009027430014,0.6609091728817736,0.6553456048385151,0.6554019440780912,0.6561824157289683,0.6539835289391309,0.6505111762429228,0.6530168843940146,0.6424464027179675,0.6470266852373523,0.6440243572028508,0.6393385869838883,0.635456618072834,0.634048822622133,0.6297929339441894,0.623698905813074,0.6234928861367933,0.6212835524248537,0.6154174358955472,0.6138876259795996,0.608136331507307,0.6017962242865852,0.599934822123562,0.6026153876472735,0.6003994988954289,0.5920086835341947,0.588018587544413,0.5855562655037225,0.5829982254053513,0.5759969392668775,0.5740618770534375,0.5645632139122941,0.563505681388762,0.5674403261299235,0.5587701289222432,0.5566450518092079,0.5533078553121031,0.5471379051715942,0.5471613954040728,0.543440549717422,0.5449005644999894,28.13416156856751
test,sample_0011,0.5918721366066828,0.5986461688385688,0.60424431029217,0.6084849783757424,0.6175334275959117,0.6255372095043532,0.6339374546543004,0.6386528152253543,0.6479802554972255,0.6541959479514812,0.6675647974982153,0.6765138099118118,0.6794321163336733,0.6877761309584616,0.6940327343576265,0.7093748345654008,0.7150831151745562,0.717450518462158,0.7271644646805131,0.7355721763694902,0.7522609629287138,0.7578084047162337,0.7614394878034142,0.7652327729746061,0.7758912816174145,0.7880984098140437,0.7934650906975181,0.7970787045101702,0.8030006203021531,0.8075078757808374,0.8110123679872053,0.8177528759732691,0.8213185564570786,0.8272703393945489,0.8325064681651554,0.8345680014892387,0.8379254663929051,0.8423240660776725,0.8409612061835829,0.8448946296090869,0.8452853959636434,0.8467313296134409,0.8417508597961244,0.8398809288763756,0.8431208110516974,0.8394840418390302,0.8374821587843695,0.8334846979370862,0.8323218219082504,0.829843113524011,0.8219074975797113,0.8237158298408194,0.8159941991041708,0.8108209697374271,0.8047336705205561,0.8002059714469155,0.7920210753953832,0.7890662407617788,0.7851223838497621,0.7735579031142595,0.7672346013408569,0.761088294280239,0.7555961419890416,0.7455859573339605,0.7430707269413147,0.7341049121664707,0.7284256133819875,0.7214560237498638,0.7128795309401993,0.7053698027024067,0.6964053548543442,0.6902513627203684,0.6860079767892178,0.6799804801438416,0.6710021049338274,0.6694475921941216,0.6646866484661836,0.6569628615023633,0.6520273312290331,0.6500747680582337,0.6446241106535092,0.6348850618197501,0.6330693222897688,0.636405126320738,0.627671725836258,0.6224728322875155,0.6169628991829004,0.6181208681465792,0.612445957217767,0.6087845987450138,0.6083662286358837,0.6026375603249301,0.6055245846435393,0.5999817335402087,0.5981604638566883,0.5938151504255911,0.5997176850063435,0.5948552398377348,0.5936093359038594,0.5946641424681424,0.5957222813400443,0.5915005110914902,0.590517090078158,0.5894085085519897,0.5936066383517229,0.5903839336695315,0.5907681147446714,0.5899624359503955,0.5933991044714373,0.5989137822704822,0.5921655202605164,0.5964018387890443,0.59026591330245,0.5935277443864377,0.5952255093428003,0.5991305004872487,0.5958953850261178,0.594190851875851,0.5979535464988931,0.5937478699399478,0.598106393477261,0.5995558425269045,0.599389626506598,0.5967723359868466,0.6005268452845451,0.6004709892555548,0.5977622779271842,0.6001735842609145,0.5985865729202192,0.596634123016772,0.6008276574711571,0.5991293663638362,0.5977874432214036,0.6036174017270198,0.5985134014601119,0.5993402111063697,0.6018236996918396,0.6006447060787947,0.6024281802244336,0.6027265142247596,0.5985073650600032,0.6032838999935959,0.6072267086598019,0.6064222502041745,0.5999328006821666,0.5982240543346319,0.601147598925523,0.5997487256384829,0.6025858535988418,0.5986748961102325,0.5965699163618305,0.5925606501098473,0.5981918646305763,0.5972408489552672,0.5958399403361938,0.5908709142645496,0.5941198199545428,0.591235344963375,0.5924055303068221,0.5881649049469783,0.5934099788100448,0.5898827929760181,0.5891048063977677,0.5839517067515957,0.5850039721574993,0.5802562594407079,0.5782582500130911,0.5770703328480826,0.5811480051965852,0.5737127515182099,0.5749632176708879,0.568804847898098,0.5732305744980304,0.5682085840503494,0.5635881533462477,0.5636204118256776,0.5636639772599288,0.564388562758577,0.5600651816837451,0.5574375192672525,0.555817510843182,0.5539393722074726,0.5530934229998472,0.545708538793694,0.5484261539529285,0.5437676652469147,0.5436887722079442,0.5450320159860534,0.5409561094457603,0.5390758701590406,0.5393423455592382,0.5294953499119922,0.531677539208042,0.5329767269496276,0.5327715550688956,0.5246607406915159,0.526164104266409,0.5244075043375744,0.5229685076410618,0.5245813364008023,34.34523856458644
train,sample_0012,0.5064350817206258,0.5102149912045464,0.5069276213959609,0.5160455260394491,0.5116504914323204,0.5105795990167441,0.5141038317233548,0.5162858308100216,0.5155956338053699,0.5163484653438294,0.509771738890663,0.5153134350707915,0.5146702349702136,0.5201219024573551,0.5200081500752791,0.5215939758966761,0.5228434226196041,0.525405340684563,0.5267209506523955,0.5234965179585127,0.5235091574303556,0.5319176571315152,0.5296304203276833,0.539998973200308,0.5358350129820509,0.5388800905820862,0.5379267763337648,0.5460305092511388,0.5473434355760376,0.5430577765360816,0.5438051158385391,0.5524981401260406,0.552528023225398,0.5571468166275987,0.5563315307266586,0.5593844975033235,0.5644899147146942,0.5690148755733475,0.5760315395100216,0.5701815269578554,0.5770283981103328,0.5788742856504783,0.5869602511736143,0.587903422026459,0.5928172551282975,0.5927439449119796,0.5963845908458661,0.60596847974335,0.6031489087972834,0.6159328214722564,0.6193074817059016,0.6232331191397564,0.6253171360611575,0.6325548405048682,0.6332169087915183,0.6391058402302853,0.6495555945641789,0.6505233896771845,0.6515747792408693,0.6671080749765793,0.665826108499728,0.6694938402250564,0.6756299692915619,0.6857434379521294,0.6852195234160956,0.6959320483466817,0.6961226449324458,0.7004929863498323,0.7071423351924278,0.7074750717023376,0.7167773437671272,0.7211463543375749,0.7254989887428115,0.7228025972213195,0.7337544294488096,0.7371614732107125,0.7409208778994281,0.7442960374949444,0.7502227538586403,0.7556009156918353,0.7527681454868922,0.7606599400297178,0.7622702879860487,0.7716626033854808,0.7709818758946372,0.771969156708614,0.7776535085802525,0.7748493651860378,0.7831242057669496,0.7822660118893991,0.7857498114488217,0.789809805704974,0.7891282809486151,0.7918093602166982,0.7969500329958235,0.8006535519061624,0.798549730075633,0.7972280983589828,0.7968715603762666,0.8029182225342281,0.8071593014154392,0.8068196631741464,0.806718910395682,0.8072201989550771,0.8103387029889721,0.8065339758475476,0.8093823100539915,0.8099483754224184,0.8069793628659087,0.8093026083988153,0.8108339773088491,0.8097397171996856,0.8014617245089858,0.8100993834227613,0.8030617260943649,0.8009101941388327,0.8011776060254173,0.7986203326861256,0.7966462658280673,0.7953555914747921,0.7963282174284385,0.7915691145234897,0.7920724668670487,0.7900902655063023,0.7858781416235436,0.7792508206265474,0.7804391182686123,0.7781775974857001,0.7696797826380349,0.7657171139039615,0.7647110750996939,0.7582147393161147,0.7533051300560261,0.7508499702457598,0.7435877028048046,0.7413361175776685,0.7324607402084564,0.7349424941867947,0.7290580560680764,0.7186755125180786,0.719510526452857,0.7103424697188211,0.7059838417950584,0.7054495934016278,0.6968385748463822,0.6903352530310947,0.6855371439096065,0.6811636717181455,0.6713806110686705,0.6721878866728936,0.6719304006688838,0.6585407715891539,0.656885408553331,0.6515002677076667,0.6492780114769479,0.6448306826931625,0.6379129410751585,0.6313155191628981,0.6309578681794635,0.6222489085690768,0.6264039554008871,0.6171118325492793,0.6151516148108731,0.6115552120094649,0.605680337108096,0.6036159835643696,0.5983996240225984,0.6005060131341885,0.59240472326924,0.5884476967041367,0.5796859770011208,0.5783837375434911,0.5758663445062607,0.575176010060628,0.5750385099444565,0.567549949977921,0.5684218310900636,0.5652259594712676,0.5654587107984717,0.5570498820659304,0.5554608896042896,0.5520450347384189,0.5492300314511394,0.5439444219362334,0.5445727279426674,0.5393650556216829,0.5381755947133585,0.5380178258115874,0.5347282159683098,0.532781874611494,0.5304615055927021,0.5282449768519382,0.5239219800007112,0.5228671187039128,0.5204946479232074,0.5243201692242834,0.5202363592477075,0.5193441772162917,0.5198266174153552,0.5177685729820598,13.73709854294685
train,sample_0013,0.5287767984811237,0.532833941116732,0.533858500991116,0.5323370948591872,0.5336158795204572,0.5390693902128959,0.5399616529903376,0.5435623986768499,0.5462523063942051,0.5484380175758315,0.5529443895103396,0.5529780849532546,0.5552676814701235,0.5614785203226333,0.5559557348526412,0.5638216641846976,0.5717249400611935,0.574203603852208,0.5702955875113407,0.5722394617386849,0.5780073416964313,0.5826549525124022,0.5889149668943495,0.5857459880731983,0.5862816684665839,0.5940046705004124,0.5948531841098557,0.597791492866559,0.5997662006974958,0.6055795594513507,0.6088617840650092,0.6098862581294315,0.6129936219694988,0.61499564871727,0.6231933598663848,0.6229530741861024,0.6275603788222153,0.6247601985938271,0.6256080527441935,0.6301472883193167,0.6329120045597123,0.6344779324178792,0.6371478631048569,0.6350375764986689,0.6416305150143202,0.6419381202917137,0.6383443633829817,0.6500708188078508,0.6516196661366316,0.6518391777836298,0.6563100781837938,0.6552622790073145,0.6531476548237284,0.6592989989648337,0.6559520690052212,0.6605943899341924,0.6587401093051901,0.6606294075772849,0.6619039697034586,0.6631097680457274,0.6592969965544239,0.665975006739558,0.6668365787276457,0.6631170262102585,0.664522303562085,0.6618892728784691,0.661751562863932,0.6651881337964053,0.6635162152458896,0.6642104422124033,0.6642460286201349,0.6599607569167818,0.6664711882828418,0.663970864215407,0.6611498647188769,0.6633889614753606,0.6584587202218777,0.6629140131132019,0.6580731935032704,0.6593739705937067,0.6588018566794268,0.6533561333031408,0.6475117132437275,0.6504267874330506,0.6535248093641846,0.6506050711942949,0.6522930096620191,0.6459457662462407,0.644770245308738,0.6415116547287839,0.6403029354080956,0.6365117969638887,0.6374394302145118,0.6333429927893633,0.6288807192634475,0.6272983222871986,0.6287111774576579,0.624028979425623,0.624327518052861,0.6233825690692721,0.617783196480156,0.6171057937240856,0.611954631378593,0.6176157133109013,0.6100841187213422,0.6111835226804284,0.6136884784516744,0.6120645382432309,0.6076319449631962,0.6095961454038211,0.603343429877703,0.6105723132196791,0.604324102324706,0.6116064740367888,0.6123559997993061,0.6100637127313242,0.6181442156986574,0.619435343766056,0.6197958310236926,0.6216196297726497,0.6211603833043994,0.6236780400747535,0.6253319358711511,0.631624450729191,0.6320251322797449,0.6345471231163304,0.6416142190028451,0.6412532222015523,0.6537011627309666,0.6496164535127371,0.6542920423760108,0.6633062833715556,0.668718865413222,0.673748042636178,0.680242548922323,0.6799026381369877,0.687231965769778,0.6913576632947238,0.697925252254067,0.6961261318164442,0.7079243427603134,0.7110772192909514,0.7165949056830005,0.7191638623430592,0.727590652242643,0.7263679878556777,0.7319741278443539,0.7371258103034108,0.7463835149354646,0.7462531964977699,0.7507377734689107,0.7514950942559829,0.7559427912127363,0.7540173609544472,0.7596517149839276,0.7664240603536929,0.7600627921409736,0.7602656999508923,0.7581892411222432,0.762390663260453,0.7620204150935505,0.7608557147920862,0.7586002403672945,0.758725877445519,0.756094604933166,0.7549447726867478,0.7540090681624234,0.7482969744790027,0.7424205285715099,0.7418704621114136,0.7384038075396953,0.7323796280870131,0.7277945417586573,0.7177406985521029,0.7140050163603945,0.7140646201460239,0.7058626960745109,0.6979385925144035,0.6914461993849567,0.6885893865735853,0.6813333594159412,0.6747022119180274,0.6686353542278548,0.6652261187378653,0.6572900687581897,0.6498776613225773,0.6473783347095283,0.6378931023294541,0.6316167354434504,0.6230374688033153,0.6134890279059432,0.6130442963545989,0.607863348600029,0.598475598950807,0.5931954709726222,0.5837575098901454,0.5820097197668949,0.5786934082476305,0.5732182316912922,0.5702032870799014,19.969932180072117
train,sample_0014,0.5266647457123229,0.5253041747854598,0.5259124609326004,0.5286266263948678,0.5237618843311425,0.5288440353160397,0.5290465606335065,0.5375650507437676,0.5379842605913906,0.5395679968061107,0.5440963029556188,0.5419887146392429,0.5432458640481541,0.5468073906388536,0.5500713004974818,0.5526948349799476,0.5545758937108775,0.5581948245855515,0.5573786001056386,0.5626423374683442,0.5641259417223219,0.56706905932484,0.5682762204214084,0.5713034900141832,0.5756563587358926,0.5810976518104047,0.5867622999450367,0.5805294235134001,0.5940902311099082,0.5979046225508795,0.5995086350886185,0.5983096202806722,0.5996074984797738,0.6098835879768788,0.6107615519632021,0.6149119376045886,0.6176679473377319,0.6243203738810257,0.6276338906726178,0.6323900050593684,0.6304601135475127,0.6385357257748803,0.6470468628590881,0.6476848198287924,0.648646761826178,0.6564092930844478,0.6552122782251477,0.6602827326559733,0.6635930711077248,0.6716063628509089,0.6682177959703794,0.6805343055075678,0.6834661507085148,0.68243144299533,0.6956585526760459,0.6957108532028575,0.6976504014053737,0.7052398783042169,0.7066311380122944,0.7089146574532199,0.710191609821865,0.7233232674492218,0.7234324256026649,0.7263179656011135,0.7303877862405889,0.7331620531661579,0.7425921523492449,0.7429146600415999,0.7493895633097301,0.7525301511395368,0.7572502663642009,0.7542525292395454,0.7647323658393742,0.7635192558585848,0.7674360752430804,0.7705039491013705,0.7740392581954172,0.7771558236096792,0.7812587536107072,0.7827754562523331,0.7836450701732409,0.78805979640053,0.7846323755313227,0.786466726719758,0.7914585654000081,0.7913005817241179,0.7962389595603714,0.7939076557356378,0.7994082098400277,0.7988032143997589,0.8031314215772314,0.8026699976120864,0.8002713621465187,0.7930963563288423,0.7969832382416162,0.804412263108804,0.8045239014061674,0.8031043723804522,0.8038663518951634,0.8025660722235097,0.8011197146823222,0.8029080770583582,0.8012161570493778,0.7975264590906462,0.7981885585909471,0.7993394372798378,0.8004233857288876,0.7968282429987225,0.7940226337900045,0.7905119656239257,0.7904121965982269,0.7886458019218223,0.7849458935565727,0.7851727970446614,0.7796640651402973,0.7782870279580525,0.7762204654352405,0.7704560816881134,0.7704843056765767,0.7685420661903251,0.7669167256621643,0.7623977320028492,0.7601075090453561,0.7551701054974118,0.7510120735616477,0.7487914023689584,0.7413957131249397,0.7392512317103435,0.7263518411761222,0.7251242945373513,0.7177003714630787,0.7132059312796717,0.713776351258322,0.7091953388764186,0.6950569883624222,0.6971064412494347,0.693484183958015,0.6843214834864076,0.6795120424487942,0.6692220892028491,0.6679162208880789,0.6646789059245573,0.6534066889458916,0.6500788444913304,0.6470340030214702,0.6411830350967325,0.6374559986142612,0.629329266489131,0.6237865398393889,0.617398443838253,0.6098357573658904,0.6139791908836562,0.6029079296191473,0.6003636203111467,0.5967982376632534,0.5912277590090393,0.5864075826889044,0.582125937365023,0.5755352030903325,0.5782076637682391,0.5637763008613045,0.5666880279471493,0.5637679390447086,0.5584852965764748,0.5604691078450794,0.5489547895868028,0.5500626101054551,0.548600856613076,0.5483419717368836,0.5410488156744693,0.5412618740093718,0.5378944700282108,0.5351635700217127,0.5275022456275229,0.5317795856022162,0.5290623334833838,0.5291007908803667,0.5275346489222076,0.5251364232897462,0.5198070716347443,0.5193792414683376,0.5227301246083931,0.5159352745571761,0.5136870936116328,0.5174816433847266,0.5180257791388045,0.512346982958137,0.5151764814185066,0.5099279841301229,0.5110978287726295,0.51287637035756,0.5086166051123358,0.5093768051008878,0.5098514273006712,0.5059150680762395,0.5065876203844455,0.5047737201869293,0.5058650619625171,0.5083584496136075,0.5032506490390507,20.724928109206342
train,sample_0015,0.5497030826196174,0.5524127616538808,0.5536609883463219,0.5535633007526296,0.5681586021371817,0.5691207769602161,0.5717939256161844,0.5723111251719029,0.5813772761248585,0.5845379233465424,0.5886890607795101,0.5924898170294949,0.5989188254425948,0.6043831633472709,0.6040416404935729,0.6068993585067336,0.6138673358130888,0.6202614629912679,0.6217990775944461,0.6330241337504379,0.6404816822599884,0.6351867633086408,0.6446693008683962,0.6483160157865581,0.6496775591803897,0.6585076356997542,0.6618529265342904,0.670947431228536,0.6685289903022249,0.6757252917281014,0.678401807202869,0.6809593853434049,0.6890804389769385,0.6901771136671114,0.6937051595231688,0.7012051727707396,0.6930853990289431,0.7022471101014167,0.7062511540555936,0.7120561823149674,0.7106618484903824,0.7114164478697773,0.7197372043080164,0.7205234484548482,0.7189723820627631,0.7211574391162079,0.7270754183722723,0.7216904398247601,0.7230552873151126,0.7264911707809815,0.7276949404740932,0.7195781405060633,0.7204314741836302,0.7264504448115995,0.727614122307858,0.7185715343619662,0.7233752995303392,0.728202812382201,0.7201397376097463,0.7220888813200381,0.7230978397678562,0.7243549300690841,0.7223266584933037,0.7183173689406239,0.7207612554764004,0.7189403034243658,0.7132218101146436,0.7097683268776983,0.7094266268848163,0.7093393760726001,0.7102642566668365,0.7068227130348418,0.7051634375781631,0.7010680004134937,0.6981927474026384,0.7022857885070728,0.701326932636373,0.6925375837239087,0.6901588948556355,0.6851379217036777,0.6854695508474256,0.6845343996355893,0.6791908817146316,0.6739346035893361,0.6758284106443668,0.6701476741338135,0.6688900665201978,0.664443273279124,0.6621373410303767,0.660411685790474,0.6612780667203271,0.6563461625930533,0.6552459822169833,0.6459383871901835,0.650201463375768,0.6438212324581808,0.6411690663419761,0.6470268370555572,0.6376411735455387,0.63095005820022,0.6301057469457709,0.6299285680396014,0.6246985820014237,0.6245660858173164,0.6220230556791124,0.6179468722906771,0.6175929545491311,0.622222389908206,0.6153297983506321,0.6130838900661866,0.6146225347269245,0.6116624536744326,0.6094797244925801,0.6129556100801932,0.6130034239907597,0.6094853348723244,0.608251151840288,0.6055126625828778,0.6104405124845621,0.61308141970309,0.6115864787972819,0.6134197005778308,0.612988130442659,0.6129928943821973,0.615765527707919,0.6166093789349307,0.6129645925764583,0.6198807660066767,0.6212070465536573,0.6247639220781884,0.6222032352577757,0.6278971313848798,0.6272413181354244,0.6284003970385339,0.6343746619780873,0.6315851149329077,0.6406746037087598,0.6449293918453936,0.6441715142220159,0.6429738230590198,0.6489251463004877,0.6546453253911814,0.652259553504621,0.654895582805587,0.6549013757569915,0.6598823966513937,0.6597828497665701,0.6646601453078975,0.6650169126732681,0.6665030402526299,0.6686363948183229,0.671658218301018,0.668742787723244,0.6722876865553503,0.6761730301523631,0.6769777734041307,0.673577301754501,0.6767943886296945,0.674706732571617,0.6757690811235844,0.6711971325166843,0.673104824710592,0.6703245881170209,0.6695953264886435,0.6686555857001791,0.6636142516850398,0.6637665434578142,0.662235276518802,0.6569234055125933,0.6585912293870928,0.6554994434041275,0.6472268048900208,0.651867396679261,0.643077640290635,0.6438064249270885,0.6369859335816337,0.6326067439448713,0.6278616617939426,0.6250150425673723,0.6216606442963759,0.618126048778882,0.611864066060731,0.612058276363605,0.6060399492367079,0.6006554647745712,0.5985980602135156,0.5906233240221529,0.5861101118011933,0.5805015881309301,0.5765127840497988,0.5768137260108065,0.5725542789560512,0.5693948123717956,0.5628383477934427,0.558475035873457,0.564342025027487,0.5494634119977162,0.5504458878914267,0.5486267855062766,0.5423964530712102,25.161401624717996
train,sample_0016,0.5179104849460284,0.5118235463530783,0.5131236250657661,0.5147586362353481,0.50849227364112,0.5160060804084678,0.5157287036821498,0.519287037141626,0.5150805221919386,0.5197481480565325,0.5190818550403208,0.5272337934858278,0.5241773330496331,0.5267215053876997,0.5249682640515846,0.5281143102287277,0.5280234037984007,0.5260665071366635,0.5346768496153143,0.5351666112799051,0.5324881207199312,0.5326056737318666,0.530514681294093,0.5377533275870255,0.5356547639273002,0.5373143658429396,0.5410772083365344,0.5433436892156938,0.5483682724977961,0.5456574525041782,0.5435543376226083,0.5495509172363205,0.5507683674224996,0.5512670376894764,0.546685218110864,0.5536756464068135,0.5518169130210268,0.5558683259678472,0.5584702021639808,0.5597552556440116,0.5604636491888039,0.5647044265514974,0.5702912525737109,0.5652268964337511,0.5715219453421103,0.5669787953138758,0.5731747503722029,0.5769455756207909,0.5771678708385676,0.580460850750121,0.5793220769545147,0.5788022766984537,0.5820852322733172,0.5818366824194352,0.5852168358810943,0.5863035120622576,0.5893869946045619,0.5938468242904607,0.5956766582571035,0.6000954173316508,0.6052283093794302,0.6034761789424716,0.6006660397245831,0.6106826382683394,0.6064410540923825,0.6159746646809274,0.6189337113894178,0.6165208270053039,0.6163633242791983,0.6252743115812894,0.6244314646052794,0.6310510775736458,0.6306877324842678,0.633893183676657,0.6419528247483889,0.6373046898380106,0.646786377929994,0.6517053544278882,0.6594033890272901,0.6572617625481041,0.6628435986474835,0.6642475757865589,0.6731547559489388,0.6773782677681323,0.6795354108625382,0.6844654322167298,0.6913259290702746,0.6936067698335863,0.7033428699749735,0.7037493937649151,0.7103058649594678,0.7199571097068145,0.7180243389024918,0.7209044923764772,0.7280888375382767,0.7331601546589115,0.7365322886529675,0.7470675849842814,0.748891354088083,0.7514926306185116,0.754142814837765,0.7629774108170164,0.7678474235307228,0.768659435597225,0.7830216677850417,0.7817081566144035,0.783248062451328,0.7899405239944837,0.7917975043972241,0.7986767577746356,0.7983544456415315,0.801335274928511,0.8048513061269977,0.8050509074475325,0.8088671886071472,0.812542877817175,0.8114627265482844,0.8166579217606345,0.8107316441589747,0.8131471934962682,0.8174648837234452,0.8160420889631667,0.8126603986994874,0.8178136177375233,0.8174319523022977,0.8138246086638039,0.8107552712856058,0.8162872906269569,0.8115213545882455,0.8063837388533464,0.8023867950545225,0.80650235234598,0.7998701516349409,0.7976847859291147,0.7951220153342097,0.7869570851708966,0.7848335382075984,0.7815106011311403,0.7795487309069398,0.7794762602899213,0.7698687768915417,0.7630872870275796,0.7640876933098345,0.7601912438217682,0.7542176034435065,0.7482925009736133,0.7408229366968799,0.7403145693790183,0.7381562438417287,0.7325308383313424,0.7220599105126344,0.7209233637124148,0.7130012060700944,0.7134183084623262,0.7061004447134052,0.7052666663934944,0.69286633287588,0.6898656274271155,0.6882418884690173,0.6755894612114016,0.6807597286370785,0.6703929662988106,0.6604793654466355,0.658653739962801,0.6569587467618891,0.6524175463077571,0.6458787931216506,0.646707243831451,0.6363458051560016,0.6324905486676847,0.6280228721191514,0.6233128687473379,0.6225384931484221,0.6151551472366268,0.6124073411453124,0.6060806122570843,0.5992153517783171,0.5981400547182494,0.5978532705560805,0.5912107449262042,0.582802457419652,0.5826424711240861,0.5733508225677036,0.5718373014171525,0.5685908005093415,0.5648704331161342,0.5598558135576631,0.5581889798285686,0.5532046322043453,0.5528964275518921,0.5463345796078412,0.546104948943827,0.5399784061168673,0.5373668340355737,0.5338975913393313,0.5391583473430537,0.5294048181667459,0.5294474833367423,0.5278161711798156,0.5227849770812726,5.0
train,sample_0017,0.5580645079837013,0.5597184138734786,0.5683237923648501,0.5683422527159124,0.5722723462462426,0.5748332063878469,0.5840069060803721,0.5860473524354738,0.5957186656549696,0.5959477328993275,0.6006770000021308,0.6084451811169793,0.615855154299038,0.6172120492050954,0.6273751846718014,0.6219516963812879,0.6351280724182625,0.6368188110759073,0.645773269484873,0.6472463082586496,0.6514959660366959,0.655858282841137,0.6671030896006074,0.6671009826506068,0.6758861392772351,0.6764097650355448,0.6860616264779695,0.6872116715024066,0.6951508745036339,0.6962556347417648,0.6993420332179978,0.7116010639068396,0.7034242791597036,0.708175607290553,0.7096589789133958,0.714419095179576,0.7157162811632967,0.7171666912751518,0.7246856620854869,0.7182608070875687,0.7245740821291435,0.7232824914349218,0.7239450143534824,0.7257286890603768,0.7211222409444584,0.7233932169792152,0.7201662075949291,0.7171276600554959,0.7162577790603148,0.7212794651427443,0.7184947001800255,0.71063244604353,0.7077698768135353,0.7121290519276781,0.7017639390902134,0.7073504389738772,0.6979291028785237,0.6951361999425335,0.6925594585179222,0.6944099536225393,0.6885223505753462,0.6869350302162547,0.6825909189236912,0.6814277835504827,0.675975484492425,0.670175037441686,0.6659620396846381,0.6629411842230157,0.6621414791330644,0.6572523650635582,0.6527299079585926,0.653569661063565,0.6508620089580281,0.6516521621722424,0.6467885893105431,0.6434523795866596,0.6412247331289022,0.6382240853925044,0.6356747423610445,0.6332774147619451,0.6311494134188931,0.6291270955349779,0.6316553337349889,0.6293262755775518,0.624101619627433,0.6234478580283462,0.624514100456135,0.6248360140468053,0.6245782970622011,0.6240588824229357,0.6229134128513814,0.6197972700072685,0.6237303507386608,0.6248505464958398,0.6283971848027307,0.6227974206505895,0.6293656870509782,0.6317174117806474,0.627367144967184,0.6266416184569927,0.6280077674477743,0.6321515749431207,0.6289104881263367,0.6346124707218805,0.6367850589342369,0.637968460776493,0.6378644876806746,0.6423239818340434,0.6408359259267915,0.6452654564664487,0.645224371341677,0.6418239351966972,0.6546690658983926,0.6502994312227015,0.6532719974803626,0.6525277813238262,0.6540702578404762,0.6571873146737517,0.6558870820069682,0.6609472642542902,0.6615587438669505,0.6662346663946324,0.6655738773663696,0.6705792131379029,0.672255177142928,0.6762173357421608,0.6720369742634537,0.6748083843841624,0.6776496144386559,0.676096927003279,0.6798132246782955,0.6805127003031475,0.6845340304752234,0.6889929596110802,0.6873026899387834,0.6871505368725912,0.6854294062028379,0.6851625890668117,0.6864180726080084,0.6901257523058925,0.6951658755336627,0.692421544848764,0.6945664721486932,0.6918308390493709,0.6934657415292621,0.691110245235109,0.6933329411150069,0.6935026819753642,0.6924592349712396,0.6916011086831466,0.6918802911833692,0.6959010796765391,0.6886472805638427,0.6916106070824165,0.6892186827783171,0.6881821124243452,0.691301423931653,0.6870135015833051,0.6842045209982704,0.6838364911854127,0.6803145200848231,0.6803879223243576,0.6739862840324367,0.6760652917800766,0.6709791065255655,0.6683703632348056,0.6673053304857156,0.65758397427387,0.6548021043417105,0.6581976509787614,0.6554731422521382,0.6458070042857526,0.6448892437485458,0.6429821041597308,0.6398555168687968,0.632270059704792,0.6332423972825281,0.6284362624616916,0.6261485792017352,0.621493103098023,0.6151105726627227,0.6105771671460406,0.6075718593864826,0.6036455357511388,0.6047164786308131,0.5993420256788711,0.5902204663534266,0.5905345956635009,0.5842237823614848,0.5793513198974618,0.5796145140751434,0.5684587898029608,0.569198161002394,0.5683289348847106,0.5655637620373709,0.5596081619905183,0.557960143353488,0.5522842010453884,0.5534338050822996,0.5509279277957584,22.67962777334924
test,sample_0018,0.5846163906387601,0.5918170572359642,0.5992681485528413,0.6025424091136911,0.6092078176787131,0.6138263017390596,0.6276377816482189,0.6300269635622646,0.6361800900546761,0.646881814214127,0.6532941800390571,0.6586587992697115,0.6669617447189369,0.6749372706535919,0.6796458769004365,0.6865219603627111,0.6957539871380767,0.7035785835209634,0.7090114850410478,0.7210404477351464,0.7248332497457513,0.7317272636837633,0.7396667691080802,0.7516432514529787,0.7616085611073813,0.7635267880948087,0.7676392256717808,0.7744690568947998,0.7751962949822921,0.7856599149496264,0.785462304843979,0.7922554791717682,0.7966983692310144,0.803696133964074,0.8046424750767462,0.8099453505571886,0.8075873861906884,0.8144258784459066,0.8112138313317037,0.8160458922668099,0.8157328779737256,0.8177821102516403,0.8127475010332992,0.8179187024269656,0.8159036618777455,0.807205630997355,0.807694899221518,0.8048462101470406,0.7992815388873452,0.7979848056694603,0.7967291545091393,0.7937903022547578,0.7879053487446059,0.7787367479658582,0.7748414398654965,0.7711437008276363,0.7688750048967796,0.7603792816350579,0.7548639891292941,0.7456742540158451,0.7424939722097417,0.7355146109302564,0.7283372037351286,0.7231604647888683,0.7138311330900695,0.7129544784593409,0.7025294320888037,0.6964655127665698,0.6930250694846598,0.6843351622103703,0.6769453125605295,0.6717421723602517,0.6659947518845848,0.6646704615842688,0.653405540088099,0.6516656621522152,0.6461762521653258,0.6420945813210359,0.6399417066062594,0.6287072608594153,0.6233098143108614,0.6263466890194311,0.6221517508838262,0.6193451210684654,0.6153981926974313,0.6139509567854747,0.6140811930954753,0.6140224694349099,0.6135737559124264,0.6053574107074791,0.6092891157201151,0.6055152117597149,0.6027355695423752,0.6054635545878886,0.6040338620636398,0.6019264992356387,0.5981733718045573,0.604361471417558,0.60144663092192,0.6038463694487683,0.6036996989378611,0.6025920979762999,0.607333217273982,0.6085315711453329,0.6057438918322628,0.6032390713855067,0.607638056732103,0.6126798457323654,0.6133084522742565,0.6103475717630689,0.6151837345342385,0.6152218561055938,0.618189428713609,0.6150069091120617,0.6195430010638864,0.6204622690341932,0.6169614701010548,0.6207031425488603,0.6132382054835992,0.6182026629027237,0.6218712748965453,0.6219065522949346,0.6237591601907234,0.6265589972651133,0.6307200163471693,0.630404765702812,0.6207017634448224,0.6250331657188113,0.6299479136768791,0.6251777500020702,0.6217497214476628,0.6236658471674589,0.6272579495565969,0.6248915597774616,0.6266685386890751,0.62814431659947,0.6248832242949611,0.6236404956099316,0.6209749215195285,0.6229628311286479,0.6227615211017419,0.6226944401360096,0.621927873395847,0.6217217273600188,0.6211309701363873,0.6190112655851685,0.6169305727446838,0.6169059680978299,0.6123437874661931,0.6177122606220568,0.6081042134725595,0.6120902454915803,0.6132417349567973,0.6095365066253658,0.6064485164124968,0.6062313267206209,0.6048047229738224,0.6012835330644921,0.6004701906200315,0.5990174558674966,0.5959980785368506,0.5957525355853014,0.5913582355527776,0.5910844045677219,0.5921391939190466,0.5976395466562847,0.5863845304718369,0.5878734174202682,0.5846350330889611,0.5829026308322388,0.5774118746421985,0.5790463585295396,0.5722336743068652,0.578746460982414,0.5686103890326408,0.5630352530863175,0.5641254879420959,0.564376378419614,0.5600316136826461,0.5603862269742724,0.5593495169637398,0.554959625980635,0.5477536897094677,0.5440589754448496,0.5477502041797062,0.5435893092131837,0.5452233925446301,0.5374909486801126,0.5395269090070131,0.5366538000575708,0.5320177465998512,0.5328510943329251,0.5310047373029559,0.529250348424661,0.5299467624923792,0.523823936290227,0.5234659675509318,0.5203697872745008,0.5216122987193154,0.521157506359234,32.185614997871305
test,sample_0019,0.5409828760870274,0.5434185032917737,0.5464707518481599,0.5520672832870065,0.546854545713516,0.5560815988441934,0.5571980978965694,0.5646416738898977,0.5675698740983752,0.5716544620040453,0.5747518096626016,0.574491614951,0.5825077374710794,0.5846176990524674,0.5937906674768636,0.5951754834708736,0.5971835675922376,0.6025048501695468,0.6065171627775708,0.6141009691250134,0.6214113084825214,0.6218477879922995,0.6289382961018664,0.6334727272036708,0.6419388331084606,0.6431540283162613,0.6522257797922054,0.6504342850166152,0.6617993780833147,0.6648292883174556,0.6667102893920981,0.6794652997007955,0.6852379776182816,0.6917876129700704,0.6935575784274316,0.6972706581148655,0.7040238706250684,0.7109971801758144,0.7141519448535704,0.7267773591706448,0.7239307285109631,0.7323514650307162,0.7378461358352905,0.7467753201357676,0.7453091242662614,0.7559395518422295,0.7618218950273634,0.7640766312841025,0.7644527152915046,0.7738101643934271,0.7795398866889149,0.7842050935369662,0.7893583378686277,0.7985822287284887,0.8036316433076209,0.8073979733043384,0.8101712622318189,0.823031668035625,0.8210410420141316,0.8280738692305822,0.835603620957053,0.8360426471766369,0.8370465683458003,0.8380149523729366,0.8443789154720442,0.8490021728274039,0.8479905157850188,0.8587205300793588,0.8556083396404399,0.8576587354661362,0.8611188548106807,0.860406587316209,0.86261269488926,0.8608464937898352,0.8665640131160512,0.8584334956346223,0.8614530031497464,0.8593715386126641,0.8597493101283384,0.8605835053052443,0.8567978580907456,0.8488869328330985,0.8528020718999059,0.85094788247645,0.8423868008510018,0.8361398352890254,0.8332606933576999,0.8313519622678724,0.8235474412195628,0.815776221920621,0.8078896979960418,0.8076405709270109,0.8032260138130844,0.7950281696854882,0.7848650382112466,0.7752276172343657,0.7704852830383775,0.7648355250476259,0.7568788302926903,0.7451474942741848,0.7413127509384443,0.732042394697964,0.728882391761502,0.7162275707479062,0.7112534330945659,0.6976770715732372,0.6916736451031223,0.6820425237586905,0.6801089311443657,0.6710239129404079,0.6601737455108188,0.6620763342052332,0.6487675109585436,0.6390425352859858,0.636222524007548,0.6322074340000555,0.6224973470989914,0.6186893004199701,0.6164924423772944,0.6093504549569037,0.6065275650350157,0.6022169266167677,0.5945833037984382,0.5922008533397544,0.5907764267899261,0.5854945283411979,0.5778932066194586,0.5787153025803032,0.5749309961252078,0.5702740108585956,0.5655581831909208,0.5688999854997079,0.5695780448502967,0.5603256139759989,0.5589510842583083,0.5611382860790376,0.5621139383032449,0.555667063710872,0.5595978959601628,0.5564009380878518,0.5548009098590277,0.5522226196071899,0.5558055191272135,0.554710375902304,0.5521078467420178,0.5564911027198077,0.5510099658141412,0.549372284795538,0.5565548405914206,0.5557280066248473,0.5508499468464351,0.5432620943848201,0.5516872833588472,0.5505069162831324,0.5500740286374537,0.5461131981881866,0.551143538497938,0.5503266046597927,0.5533246757310727,0.547710183748392,0.553712209569966,0.5462017239403749,0.5472532745999591,0.548527392054161,0.5495313990343117,0.5469538024892227,0.5413271952812274,0.545475214385293,0.5457862084329677,0.5447026380777442,0.5444567261935871,0.5441347727851596,0.5408706733464894,0.5408280975186129,0.5401931820972511,0.5396722221982708,0.5385009057608897,0.5407038007179995,0.5408291259779715,0.5357809316179915,0.5359805160550878,0.5333392648418441,0.5294499525344976,0.5289995838003948,0.527948834257818,0.5316397685289973,0.5281431863927106,0.5236447646228665,0.5223402826285349,0.5271573488680763,0.5279304507947864,0.5270121237009814,0.522154203108626,0.5246850766502396,0.5231911189419494,0.5219579639855293,0.5199399982258294,0.5176480905656873,0.5164593506463134,0.5197392618698237,29.967794167785055
train,sample_0020,0.5198755469501346,0.5212367273091488,0.5238852939184668,0.5211799497523683,0.5229506026658415,0.5271309998654504,0.5259596434488448,0.5245013438078113,0.5286323072787172,0.5303824808024894,0.5329281419610878,0.5351996077636468,0.5333307061556742,0.5396345957911315,0.531473136630485,0.5417862281456469,0.538096986772782,0.5393981229814863,0.5440709534841826,0.5426482043373515,0.5488137270740749,0.5505702579217503,0.5503771515292352,0.5540616733386973,0.5544926324061396,0.5583698316186158,0.5587477911108281,0.5605393437896269,0.5593804846450796,0.5651166528356574,0.5642429767521134,0.5674963591736413,0.5648612655135616,0.5706421203485621,0.5652490805485513,0.5637997454433362,0.5689487972402409,0.5725536367653614,0.5761109037745228,0.5752238382259101,0.5689061764258875,0.5695521132316279,0.5695629513513468,0.5738142811364285,0.5682258564653477,0.575605635183542,0.5746806919054627,0.5738567233079054,0.5766507553829263,0.5765583811186437,0.5750755428108976,0.5765853428842903,0.5779612327646493,0.5749454189938928,0.5728800669355741,0.5764953258241579,0.5702233739785627,0.5748374698773213,0.5796154584702963,0.5765033173027638,0.5736165868967873,0.5792537423975733,0.5789390312144179,0.5808320829000626,0.5755766924135968,0.5844101900961834,0.5826449329356641,0.5866554922142432,0.581624109003517,0.5860146592669768,0.591485164024787,0.5902938906435079,0.5929613324919004,0.5947859923358315,0.599834430549059,0.6021938884717566,0.5982355637726071,0.5997880950796051,0.6037830493572651,0.6114478109511536,0.6163042733687301,0.6201209409614317,0.6308383654047441,0.6338814584977996,0.6357248920172356,0.6384379055560749,0.6497822749911385,0.6515292487473815,0.6545813293037503,0.664852116153542,0.6726731038514331,0.6766338049172477,0.6838370120292595,0.6912040767418817,0.6970032850097028,0.7019857563843777,0.7093893081285041,0.7230944930618375,0.7257634759125573,0.7361113537760972,0.7392816424251171,0.7428914069265338,0.7492103862556834,0.7574705869196662,0.7651092873661804,0.7708877893423047,0.7817637746538884,0.7835896645756395,0.7841157749673262,0.7946344405074673,0.7998682770184786,0.8056590786434505,0.8151231688183797,0.8102957090843175,0.8177641751559074,0.8203411403314014,0.8172661083719515,0.8270939889808332,0.8283839146980019,0.8316296656590705,0.8320711176492237,0.8363309920146738,0.83586921435434,0.8334178367889552,0.8338786002970123,0.8322334885594991,0.8362064045482742,0.834761267805516,0.8327287832630477,0.8332766717332036,0.8301645156525809,0.8251308293281232,0.8261534610571782,0.8248306599718607,0.8180783429408548,0.8152694856450653,0.8158653139105596,0.8112085599353361,0.8071327948798983,0.8041274663658438,0.8000415815473768,0.7942390226366736,0.7902680826331676,0.784395879383573,0.7784095086213935,0.777162216276626,0.7688495797510375,0.7681803764653663,0.7597265160847073,0.7530274590131949,0.7512034638269356,0.7468826564079365,0.7391722323864913,0.7379208467861295,0.7295680556366,0.726083606650212,0.7225292718369155,0.7123860700765614,0.7097690877741271,0.7034528095609707,0.6952987574084076,0.6932996181340133,0.6863790470647609,0.6835606544840608,0.6773678047134288,0.6730796317089305,0.6671951387119944,0.6608448326857794,0.6565193113412071,0.6526969689825266,0.642419411399908,0.6426900936328181,0.6406769333899844,0.628909367103363,0.6244848057215163,0.6255856570943568,0.6202432159019631,0.616375245493683,0.6053269936495043,0.6036996526478271,0.5996856729249851,0.5890135647622136,0.5893516821260587,0.5857060624930511,0.5835855936927089,0.5759179628898552,0.576789633530175,0.5756609936612267,0.5703143063597427,0.5616402647449084,0.5612614954998529,0.5585831822172735,0.5504970934146172,0.5531025772908509,0.5470537557188775,0.5432943130941047,0.5435325384668217,0.5395202298606563,0.5326742389978288,0.5353356196502118,9.302681153734389
train,sample_0021,0.550884819054041,0.5578489885229797,0.5643050258051637,0.5695067972321824,0.5668523430786583,0.5732277012648946,0.578379917938455,0.5844357094336587,0.5863377282030746,0.5935520745290076,0.5935643242924316,0.5987746445808424,0.6029021049439434,0.6112419361089102,0.6085522071956228,0.6243826381063561,0.6200425895028443,0.6256209605996054,0.6331537210595979,0.6359753590297597,0.6418104529707735,0.64602279366487,0.6547420219053844,0.6555612846380872,0.6569264639182963,0.6610014495173593,0.6650079594232005,0.6718593561289259,0.6767686428849722,0.6809637371565885,0.6833928147936823,0.6895314147334798,0.6876240497435522,0.6902857618488097,0.6921536431835547,0.6961320332231662,0.6987333714869749,0.6936929759445413,0.6956738929975002,0.6965252015416584,0.6948970076741477,0.6989200013358148,0.6985683236776322,0.700774221617078,0.6989672031123288,0.6981505135006645,0.6943632102016627,0.6957863944434562,0.6929801908264438,0.6895968608352979,0.6874860815446976,0.6852760960009429,0.6865922628177574,0.6811534903175726,0.6764773567969848,0.6723287274505079,0.6711462967324546,0.6641011716229307,0.6650236423922012,0.6627413286538724,0.659284028520327,0.6525592168784229,0.6500797130366898,0.6525675096942205,0.6434017672834239,0.6362784425780456,0.6324304354681174,0.6242490260010808,0.6235792288401559,0.6253812078924068,0.6204997052921454,0.6115572851704084,0.6142355174422613,0.6085722796946735,0.6088784403753539,0.6022028826369449,0.5965997222382284,0.5958654911550342,0.5921506326292623,0.5864401835469818,0.5860076337158819,0.5896320545236642,0.5855833507712774,0.5844757678104076,0.5781829856545951,0.5826903096602823,0.5808346458611605,0.5725703363245004,0.5752865154712377,0.5704291858731496,0.575489978911295,0.5702019160435643,0.5729078597078288,0.5717101015943538,0.572862143023901,0.5705109496058535,0.5717937810727161,0.5717022265636629,0.5739165578376851,0.5699480083471273,0.5786846138930781,0.5781482801895312,0.5747669483539297,0.5725411117592873,0.5835559899418592,0.579281136300262,0.5866299001509654,0.5821071743811623,0.5896966238357584,0.5919604949649784,0.591830641799737,0.5933743530812822,0.5983076883408539,0.6040575316948428,0.6035785352996368,0.6076202558317839,0.612032784918531,0.6122042717625202,0.6202914475476375,0.6213249582090794,0.6207359769426791,0.6296859349423468,0.6334011741154748,0.6339387031080435,0.6394207121959964,0.6397059009539475,0.6501788657609748,0.6507917872633029,0.6593529518687908,0.6617318273675632,0.6656920648076251,0.669780267396187,0.6774527885512083,0.6833280841448998,0.6855752699433165,0.6872358694678682,0.6980319649801807,0.7021009620964411,0.7085412316804443,0.7138988702848788,0.7122303946093992,0.7172985712295091,0.7227592752184304,0.7288027901610281,0.7268349375436376,0.7338769569976974,0.7305997908639779,0.7426119131046833,0.7444214798130006,0.7380790780301147,0.7483220076377379,0.7424432319733412,0.7514353143437446,0.7507435917734104,0.7506718837162725,0.7554113125945974,0.7490668389643974,0.7571700836083345,0.7577941815884992,0.7481306350012724,0.7518592497884533,0.7522566708100702,0.751204862043616,0.7453213386972722,0.7413572944503561,0.7425531215119325,0.7378037559480453,0.7335707447030926,0.7375415391311776,0.7310789503244931,0.7251724019390366,0.719596388769189,0.7134640604444401,0.7110887279832231,0.7077253257242491,0.701620898409606,0.6958304514822757,0.6895599272399313,0.6840650839107403,0.6793514074164695,0.6766577428963154,0.6702893515222476,0.6591184063013509,0.6555207446690094,0.6520464645603012,0.6431810061018812,0.6398422868593542,0.6325485051343958,0.6257854650082026,0.6147152605511534,0.611677548314284,0.6080492924493882,0.6026469851716872,0.5971042591544593,0.595074163667674,0.5901162875406045,0.5830178177078589,0.5792718557969758,0.5756370836811279,0.5667259528438298,20.179542997284475
test,sample_0022,0.5391776684872283,0.5431039295122289,0.5445606183174088,0.5474692014538518,0.550266987072782,0.5532423311227639,0.5533632107016088,0.558082125427912,0.565240608238202,0.564735471485148,0.5744274203552716,0.5715511682881216,0.5784357792934847,0.5825013025015907,0.5824702334728634,0.5900115192778722,0.5934572542928944,0.5923837440739244,0.5959221047297956,0.600375708192756,0.604650010466054,0.6087662189163326,0.6149409809951101,0.6167645938323406,0.6220640437669134,0.6220042336634243,0.6288858293575035,0.6290027608511274,0.6308368009351534,0.6316044325904859,0.6405303092049125,0.637893783632683,0.6449386138724482,0.6496971900915784,0.6481117292519725,0.6453363577612394,0.6529069591381195,0.6526531997638354,0.6579205324053775,0.6532657826002594,0.6508082770826036,0.6527576785444303,0.6579755342015274,0.6571644006563497,0.6549665014055619,0.6609874596070839,0.6582865050826133,0.6550823469052864,0.6570201672295383,0.656680132666154,0.6595220170821848,0.6518523677588373,0.6545249781335729,0.6559033378429164,0.6542424906527058,0.6549987138481361,0.6512598852281368,0.6488659015646551,0.6458611789459191,0.6457915614309178,0.651275619186381,0.6468103912241164,0.6420742519115795,0.6442956399654363,0.6485969570907295,0.6452136848662942,0.6386587948112308,0.6415259872126698,0.6386421192255832,0.6401212858003551,0.6397367844444557,0.6366638788853777,0.6416779239226349,0.6409828791344142,0.6361271123524008,0.6399676625043285,0.6408968249403502,0.6463737130375595,0.6428063015583572,0.6481130258669436,0.6451499192258126,0.6499236345106146,0.6522930081114154,0.65193639243962,0.6538176113215046,0.6561777973097107,0.6566035976186642,0.664864794731394,0.6619889881266363,0.6683257776110988,0.6702672260890143,0.673340324429345,0.6795723089480883,0.6848843407342929,0.6812137350423666,0.69232722226515,0.6910434048545253,0.6978141574663377,0.7011703575399177,0.7065532862048511,0.707029391757573,0.7053779178529301,0.7157686402349531,0.7217116900828143,0.7281813803223557,0.7286326546208605,0.7308740345364351,0.7356242665035548,0.7392927154594262,0.7357087615458983,0.7445651950978022,0.7458731824766012,0.7437719080711425,0.7553562314008293,0.755700785386874,0.7513402899735667,0.7629593239400563,0.7576419242369715,0.7601287886047551,0.7595513557620159,0.7647871635024202,0.7596881024902609,0.7579552516459033,0.7579321562076442,0.7620625742752098,0.7615857567162525,0.7612512504728972,0.7582608796687548,0.7560661909245636,0.7583033828999677,0.751559838218572,0.7512947953028226,0.7534695993255294,0.7459509205616047,0.7415581625924959,0.7452629529874848,0.739994324528049,0.7354462981293146,0.7321011365263622,0.7322921973822295,0.7209445451797394,0.7173696059347088,0.7144394970781872,0.7156302785518915,0.7103400237429068,0.7062691912971217,0.7093365408486778,0.697886673202533,0.6982314927631933,0.6885429176237874,0.6890254656933807,0.6850049268595679,0.6793248388276703,0.6744812792497166,0.672831098935526,0.6631567834611632,0.6640403301561641,0.6616429496375283,0.6525807033186173,0.6499308810618726,0.6465887730329851,0.6449661314395821,0.6353845957753923,0.6302474211740197,0.6296509855924184,0.629309887346321,0.6273607708297895,0.6165395632238237,0.6185675301873633,0.6111333096107574,0.6076462499573659,0.6065567469794496,0.6017217811745426,0.5918181629125858,0.5946719881881305,0.5884841604729707,0.5833000117207624,0.5833422369176473,0.5792494498343714,0.575923488042328,0.5701053946472123,0.573144193728993,0.5665663070579686,0.5606632182014761,0.5629176284591402,0.5580360563081281,0.5547343040611744,0.5453767736937518,0.5504781422313032,0.5456445771219859,0.5434171687122669,0.5400566422214834,0.5355799701255363,0.5394093802434157,0.5331017049126108,0.5304740186361067,0.5354085327486429,0.5251013051712986,0.5288360930646423,0.525617181831502,17.360279171518258
train,sample_0023,0.4952948265701658,0.502444078928393,0.4990696419604321,0.5018319016315351,0.5056206358268226,0.5037538051625597,0.49897906442055706,0.4987141088191928,0.5018687648937128,0.4993012873951446,0.502710402125721,0.5009547796299002,0.4998958791383978,0.5032044881674724,0.49985020848891043,0.5026566277759591,0.4994397936730626,0.5066955256914041,0.5069020004589601,0.5060048013190238,0.5028366441670477,0.5023433461811966,0.5035024082076229,0.5076793462932567,0.5058386169792021,0.5068408200239221,0.5073387301449943,0.5048975882325938,0.5087479340807297,0.5142908106328666,0.5110820902819797,0.5130337628586163,0.5123194259318632,0.5146861543774602,0.5162446194978217,0.5192806406348996,0.5189554546969468,0.515828633050634,0.5128583686035842,0.521456665467945,0.5201490806764469,0.52105360247235,0.5278196288316683,0.5266215155695931,0.5306205948205716,0.5268799603132525,0.5294812243471226,0.5340064321701761,0.5347239006688882,0.5336654671153322,0.5363420379922339,0.5398686619648483,0.5402803175097883,0.5394629497019233,0.5418320807395566,0.5479230367482292,0.5483321595810807,0.5454842961328393,0.5486822583447942,0.5573826270039591,0.5560166393603801,0.5640571436035334,0.5598325874100055,0.5621206731604098,0.5662645246653573,0.5643292087639331,0.5660337490057449,0.5733444392789131,0.5719506554535408,0.5738847478673316,0.5770640140166851,0.5787403541956077,0.5771696854978683,0.5782009922398152,0.5817401780393644,0.5872264510059578,0.5834299386710295,0.5826063631021304,0.585048819786858,0.584698652408328,0.587832169572146,0.5883884005006366,0.5870025530767423,0.5902103051491046,0.5936260120465318,0.5920069491288349,0.58869699245813,0.5960772386381796,0.5905710387776141,0.593301550540446,0.5876572761624022,0.5922621766125444,0.5999835765312371,0.5927344075636608,0.6014506281914733,0.5957569680302494,0.596880903125123,0.5994464860068318,0.6010429233834806,0.6000666800347971,0.6013621139321559,0.6082966879010301,0.6078043142793719,0.6007933412405873,0.6057853391286887,0.6132458131802986,0.6145524374422042,0.6108666757171893,0.6079935772444068,0.6171481646004983,0.6204039619002644,0.621352492713793,0.6255177734013179,0.6319394139919952,0.6355053382540119,0.6375576988836695,0.6417758273944948,0.6467720720377607,0.6525014375900506,0.6626990164743108,0.6648957149860412,0.6695837614494435,0.6795696135148619,0.6807889500977918,0.6856833790404553,0.6989140509059859,0.7073494167482847,0.7141207623826494,0.720215626165527,0.7219829343585502,0.7325953846415733,0.7388704973872997,0.7481365007287566,0.7568249837235351,0.7642049605373731,0.7723150708430294,0.7797069531085925,0.789985363835336,0.8016288927866659,0.8032133425487964,0.8132572677593436,0.8201505924231625,0.8330328157745096,0.8358378841910923,0.845116286910371,0.8493952036777992,0.8615649674948465,0.8623819686347604,0.8710930994327714,0.8726193318116628,0.875357185453364,0.8817749593831906,0.8843230894006613,0.8898850094982167,0.8932707177741259,0.8964166472942245,0.8940470494972674,0.8949163645224416,0.8965797034711632,0.8984930440810523,0.901832325802691,0.8961707625613928,0.8897345495942075,0.8900181183655395,0.8871540885072521,0.8789851878078361,0.8808887603151478,0.87290914189701,0.868678706802712,0.8589846959148002,0.8595485162111502,0.8486745942227855,0.8463552960360349,0.8357753397024134,0.8258140457016667,0.8173060471732403,0.8104238255595804,0.7949984968065982,0.7953504537765359,0.7815671354889532,0.7801961905545327,0.7624030890069086,0.7575613056822541,0.7497506311550266,0.7362048954562284,0.7254346964519021,0.7186784831906592,0.7104681161225392,0.700667615318333,0.6848466090360915,0.6798371488634887,0.6701872699081498,0.6592627451611132,0.6530136948734223,0.6431570546726016,0.6356819780326649,0.6270738409267933,0.6202285762552938,0.6127695925635174,0.6056049116855157,6.194515304990253
test,sample_0024,0.5765295525345673,0.5817195837842979,0.5868647299389709,0.5935942305339392,0.5975800349912398,0.6050350297067869,0.6046408471310486,0.616264216451857,0.6230387314597559,0.6298111131690612,0.6339664166733971,0.6374590115070196,0.6469530530731474,0.6514736426444239,0.6552537248074654,0.6724663242456665,0.6786909479537857,0.6794174552286418,0.6856588521471475,0.6983465639223236,0.7068897701191219,0.7097963940824323,0.7141852639662218,0.7219656476334524,0.7296338630199176,0.7360726040224975,0.7426388720669602,0.7497498847264771,0.751661813043756,0.7557946004905657,0.7639130240060472,0.769025459304759,0.7712326956425508,0.7804378110942642,0.7822212006206961,0.7841650754641014,0.7866594445371529,0.7922378203266602,0.7943153885121206,0.7931030648850834,0.7961718141463423,0.7976798664360157,0.8009066757410677,0.7970117497840148,0.7952814046718637,0.7936903557123889,0.7960988889355789,0.793794640177002,0.7921647678358473,0.7954568624574074,0.7909944857531572,0.7883946034781454,0.7853354785190398,0.7806425679757913,0.7788687395991932,0.7743865649613482,0.7748814885174854,0.7676646144509848,0.763335469321647,0.7639040325553531,0.7544529956284005,0.752908522965035,0.748139442153468,0.7418123286324884,0.7419094044609686,0.7341448232659059,0.7293478537891838,0.7244154910999117,0.7162522507122393,0.7163809961621133,0.7100082967384802,0.7012290811954605,0.7018697781472321,0.6973572476265506,0.6926130477948356,0.6932612275144777,0.6839308576453766,0.6771884308451229,0.6752230046603414,0.668745764037252,0.6711609236122232,0.6622623823445142,0.6622785112382035,0.6588903124977351,0.6563426575616194,0.6569877546223336,0.6472631020952904,0.644470959489978,0.6409471598112042,0.6444689566998614,0.6407486355079348,0.6337144380883404,0.6279042716250693,0.6318496763880562,0.6302816720736641,0.6261919651263268,0.6288139041222345,0.6212830408355714,0.6214656512900343,0.6207886125863797,0.6160230348660242,0.6208616928316619,0.614912925660522,0.6205457660727763,0.6126237496126312,0.6153676846519361,0.6142608953723588,0.6153646899021916,0.6114378238030047,0.6117575175748792,0.6103641354110099,0.6144855534144672,0.6059934133139437,0.6161831983768574,0.609316864748,0.6071619689638195,0.6088393637012001,0.6094786706075719,0.6115210629353759,0.6119744648904895,0.6108312160011795,0.6113491080707559,0.6122297531647937,0.6138392429910129,0.6154567156460524,0.6106241336198879,0.6125642979084107,0.6102500586370474,0.610500833933666,0.6123955905890958,0.6092170633594761,0.6124807351865372,0.6152828035048241,0.618701820808864,0.6135685421849184,0.6157643496289908,0.6182489949307662,0.6220134897210949,0.6193065419278796,0.6216122536716953,0.6189862768610838,0.6192348668728681,0.6215785954377264,0.6178928378442334,0.6197327128381186,0.61694306074836,0.6234395276872846,0.6182460084164412,0.6163816906351839,0.6214307580295959,0.6194203673158705,0.6184544425378384,0.618136875723382,0.6159928786739867,0.620658593454309,0.6189723406767219,0.6163217352936396,0.614574058656053,0.6162896804687772,0.6108237312400799,0.614643623564991,0.6105866665841335,0.6092842844261499,0.6075536608785893,0.6031663085304083,0.6063798068485675,0.6020898919590971,0.6063639535935392,0.6016205064868416,0.5985915640339632,0.5966916862896882,0.5949977386977866,0.5894658820154065,0.5895332090817463,0.584003708996107,0.5846441303032148,0.5833653196133104,0.580440982157951,0.5807716591557605,0.5800075802541416,0.575204040426017,0.5686665949491816,0.5632075033650401,0.5695330501798174,0.567217686444028,0.555779842990503,0.5572851609090755,0.5575142894988011,0.551882133071597,0.5539344473347514,0.5525498779834627,0.5471132041670257,0.5457322812292984,0.5422203313164711,0.5430511994069331,0.5375302442632065,0.538868800814234,0.532686135391285,0.5388947775237105,0.5283284889708865,32.236330889336244
train,sample_0025,0.5467932807963577,0.5404044370655317,0.545830978690626,0.550904927463926,0.5489735651767843,0.5602714111110776,0.5575657490936331,0.5645035719646174,0.5655190594209686,0.569311530590225,0.5715993331782949,0.5780312726157147,0.5818015228998972,0.585545631480526,0.5894419052288076,0.594990796117502,0.5973685470828457,0.5981646370085911,0.6059530283758563,0.6126045104271546,0.6103514220727431,0.6199242353797599,0.622862898548693,0.6242988699165041,0.6235568919199982,0.6304711784430295,0.6356492009831394,0.6379564760869367,0.641090955369653,0.6447153152100411,0.6428843431959991,0.6449436962891562,0.6477780318800863,0.6485874302922554,0.6487582508675601,0.6525043596428668,0.6532320698650764,0.6540812152738672,0.6574591457843372,0.6599750946383871,0.6527500303351157,0.655171701101003,0.6561460715923478,0.6518043168624642,0.6539073321302546,0.6568713940150326,0.65523279255649,0.6564386855832567,0.6517546187050904,0.6488817178027753,0.6435241259046951,0.6436899568421532,0.6476351147598407,0.6393604173104631,0.639648581294075,0.6368376938966107,0.638552383326875,0.6312154364441254,0.6256654514878571,0.6284485210267501,0.6228784790883706,0.624798823186889,0.6127865875446881,0.6116987280785022,0.6095989030048411,0.6058230843812807,0.6052177854149405,0.6051032190374692,0.6003536496802783,0.5905021144519572,0.598030961787745,0.5918240218005022,0.5887589540933671,0.5819507920656664,0.5777761442488044,0.5777740194761557,0.5777187380593553,0.5768132729200334,0.5727991673546786,0.573972420857201,0.5654684931391101,0.5682138691974337,0.5659121149048787,0.564871687141351,0.5601091195454742,0.560326098761439,0.5615899109633972,0.5593285486255222,0.5589201433188551,0.55778342683403,0.5599155574733093,0.5597763253849579,0.5577199574008622,0.5524089209800339,0.5579983156495774,0.5619345240735341,0.5577083131501747,0.5613024684837278,0.5608173587978389,0.561965289842365,0.5576070272171771,0.5629120618424157,0.5602923587555225,0.5637092819298115,0.5648729452353649,0.5671552095997549,0.5693340615657814,0.5750145716609576,0.5746402763335091,0.5824020042721003,0.5811062402946121,0.5846522101548124,0.5886827816381296,0.589138123708647,0.5939629830465947,0.5960352993410154,0.6036454989143214,0.606555507100303,0.6058209220991756,0.6128157035973236,0.6236152220923938,0.624904271387016,0.6351047264019797,0.6382683475700508,0.6427714650831013,0.6482620296082955,0.6517116355995085,0.6529861146388374,0.667044826254319,0.6686409749472125,0.6770880343702779,0.678749007164781,0.6884174716537803,0.6964468655097398,0.7009071629705879,0.7031042017209741,0.7091503508465704,0.719316781656674,0.7246000240234748,0.7313504065379104,0.7357744462505371,0.7372474321116914,0.7433796387729208,0.7515120793136808,0.7593845581212286,0.7581236145067705,0.7659927503460593,0.7691044563296182,0.7744883884543847,0.7763886650405143,0.7793175287489036,0.7873522230778449,0.7860246570379693,0.7878349476303468,0.7899233296499454,0.7873965851274367,0.7932434192476909,0.7970834518698136,0.7963486160772254,0.7923648177841232,0.7893222625450586,0.7875341299860646,0.7861893023748765,0.790389185935684,0.7856142252616107,0.7803179205541477,0.7749597390881882,0.7718936897287059,0.7756590521441815,0.7641026509245419,0.7634326486053162,0.7505522574469662,0.7484865099703535,0.7458079919715532,0.7335586376278865,0.7307105605406952,0.7207010547109639,0.7144037331360139,0.7120090555568158,0.7073588122948813,0.6930061260268574,0.6908338577906847,0.6812720497791958,0.6764404783432914,0.6768946426178,0.6611833847268579,0.6533240453124687,0.6445234398440085,0.6368046305144581,0.6341621014963766,0.621523033850582,0.6196276356776436,0.6148730589204194,0.6064204019225373,0.6015184858233817,0.5934861908485621,0.5854207458088548,0.5800313190203593,0.5737286175991282,0.5721472686103347,16.33111395631601
train,sample_0026,0.5038730362059867,0.5011948086439152,0.5025961263978506,0.503729303427275,0.5054476956677737,0.5076870071322575,0.5045752463602629,0.5101262106843191,0.5054613585981284,0.5072127203177434,0.5072399777875202,0.5128348776025752,0.5110996282886549,0.5100421159582825,0.5127827726073807,0.5168633858382304,0.511777161634933,0.5169246977305719,0.5130112426861901,0.5125184063059693,0.5185756114916061,0.5179747929874179,0.5220309554796807,0.521537750962809,0.5205188271148016,0.5271034833431875,0.5308285966025621,0.5249040631876566,0.5329696121795555,0.5312240058763176,0.5358171848700385,0.5381583395486551,0.5425329214882584,0.5421173978921299,0.547008173921662,0.5513509912440699,0.5513489954608336,0.556640554211212,0.5598094165372431,0.5592564872773542,0.5636554311858178,0.5678061069820405,0.5750458605863538,0.5728414560764561,0.5815367629434605,0.584929102267455,0.5918448924219117,0.5896609417976122,0.599103304058303,0.6012020229021138,0.6078687599573697,0.6092926697381398,0.6202468433033012,0.6227182548592048,0.6202927644047147,0.636173576793235,0.6410903311711569,0.6462579357470701,0.6491281326804744,0.6550784313402767,0.6579271974420381,0.6704057394097787,0.6770245841516151,0.679963064627005,0.6800378496543119,0.6869763581961703,0.6906544951290641,0.6999556435872237,0.7017191588121562,0.7068417530914874,0.7100426829926205,0.7171197184857037,0.7196578026689168,0.7272436639672792,0.7273575622166312,0.73739572552426,0.7342393040201642,0.7370862596313486,0.7473048313739705,0.7515457011852866,0.7493935999416279,0.7561044204239624,0.7587203776800581,0.7600784036794715,0.7604550536242773,0.7654406995580896,0.7704044980565461,0.7747390345145888,0.7686913527335544,0.7772971120414929,0.7809767568193122,0.7814626656603807,0.7758846059608907,0.7816890169043933,0.7795222378569112,0.7839061180232316,0.786182177211842,0.7877503756321607,0.7841540819929864,0.7871259628096889,0.7914518270112193,0.7848196722790968,0.78466137734723,0.7849916083786058,0.7830404986121347,0.7865817699322479,0.7897516658447628,0.785318398329506,0.786300589716104,0.7861644923410731,0.788598863433547,0.7818270897818693,0.7782467001915988,0.7825557431248837,0.7821721141524973,0.7807143418960415,0.7801054774629539,0.7790966222055844,0.7780273996339611,0.7746345634906873,0.7769217959199161,0.7670030812722918,0.7700519165260082,0.7677081798294083,0.7648026868065299,0.7601833073766588,0.7599691778658444,0.7603418620755036,0.7617873596852828,0.7504833994835605,0.7528971737026138,0.7470122427922188,0.7478260930077243,0.7438009535143819,0.7448969619954053,0.7352899185931131,0.7372920196192144,0.7363036637543949,0.7292435230945814,0.7312477723312977,0.723634781581596,0.7196839934439621,0.72116775398902,0.7186292911713678,0.7135249152311278,0.7093826213535201,0.7098418304588225,0.7049808939624272,0.6990900270136324,0.6961999659215721,0.6940818146956111,0.6906270834469613,0.6852767824424436,0.6836727223200787,0.6770729883676783,0.6729183072224096,0.6731960289767203,0.6692473818532862,0.6643441386477162,0.6667693864261978,0.6624852705140504,0.6520423924752515,0.6512642777519455,0.6520167320477782,0.6436067184652359,0.6436683765594482,0.6343704800108069,0.6364287757658925,0.625023834608493,0.6265854351729935,0.6207464524916543,0.6197137237047393,0.6167485371463771,0.609952880747912,0.6051672074936704,0.6043054353887688,0.5985290408178777,0.5973392793112127,0.5900393058682172,0.5893462945864439,0.5833347886713222,0.5832714194515637,0.5791493284893278,0.5710465968092053,0.5688686612768432,0.5679737243781695,0.5633780141608313,0.5592895051751232,0.5587551897410097,0.5590153157651963,0.5545899977299527,0.5553238987290555,0.5487104406642543,0.539275764919422,0.5435520822801709,0.5400319631936468,0.5341590131621574,0.5384645156557628,0.5310757983175881,0.5314223677389877,15.143685659476345
train,sample_0027,0.5105437069415658,0.5109979040818475,0.5108770356549932,0.517162382094255,0.5164213270499525,0.5115466970553466,0.5180259850365762,0.5158634065750185,0.5207550597625263,0.5192856039255705,0.5190721412465735,0.5202892530953762,0.5224737721318083,0.5239845636442135,0.5252577058749175,0.5281514271661866,0.5316470741528894,0.5295101101931151,0.5272309726788266,0.5338069866084048,0.5354041676382113,0.5407949979933736,0.5372546252046528,0.5419794686235264,0.5429268718245952,0.5404891001448134,0.5461243450825843,0.5441304456800296,0.5529450585756739,0.5587279048205503,0.5582085901564546,0.557480487111083,0.5581587451091453,0.562805887671312,0.5679751500682411,0.5616575867316145,0.5700500489445584,0.5704170535306115,0.5798285627413137,0.5784501430908809,0.5844655015935231,0.5870801376553869,0.5868962007314801,0.5931924958518231,0.6010625574000837,0.6020460902620968,0.604328318802015,0.6097063781588198,0.6128937207731705,0.6150589818314702,0.615598567579343,0.6237213742586575,0.6235249220855081,0.6332950392027474,0.6369571612477718,0.6383674242554453,0.6440228889981465,0.6532371136491544,0.649292874158989,0.6589058445810578,0.6620476411926157,0.6631674252085363,0.6699346213151481,0.6712079552393783,0.676874698241461,0.6825745023235597,0.6865646563017096,0.6961555877039587,0.6930200719574775,0.6968493963027143,0.7073424467418941,0.7052464077994973,0.7070167180548634,0.7150661856609187,0.7168876200655339,0.7136441670433712,0.719617301639627,0.719530052636844,0.7326611864763156,0.7272575853026055,0.7306103212794482,0.7386472621769762,0.7378561559352169,0.7401951210229565,0.7434176768308557,0.7456310319726704,0.7434919269929683,0.7465863375958177,0.7484013919190369,0.7515946427204856,0.7521473081542343,0.750878884558921,0.7538648577695353,0.7523516954903859,0.7540329924053024,0.753140229914383,0.7550481785980363,0.762165483496557,0.7588363814430901,0.7653821132079389,0.7588140407696513,0.761534472339523,0.7605032247421464,0.7615186680692518,0.759094820891403,0.7596426161575108,0.7612249777620825,0.7578488786713362,0.7594010048144184,0.7606964659286337,0.7614745661352244,0.7630324868047957,0.7596404734726984,0.7562716179819922,0.7558273279186383,0.7556673507080377,0.7602909740049988,0.7574129299585327,0.7553952995614958,0.7581269929768251,0.7578342542713381,0.753442987150432,0.7523439665982666,0.7472632969730265,0.7468209859669954,0.7485340172656163,0.7459273051708974,0.7441970670723174,0.7406094184343575,0.7397909696121268,0.7433697432524968,0.7390674494614754,0.7384052849010669,0.7342961545206769,0.7382055911235937,0.7321379231997269,0.7296251014069262,0.7282318378114292,0.7230436698420074,0.7207106323738632,0.7200214973064555,0.7174838045202327,0.7158884951091694,0.7080277574433634,0.713676050711467,0.7078715456268038,0.7090049987168165,0.7073484406476863,0.6998352331265815,0.7005080942172497,0.6967738826925309,0.6956971594165897,0.6926944591842842,0.6906696921420451,0.688610098815972,0.6834653906670102,0.6799440614781912,0.681753203071031,0.6732858052453106,0.672690908065036,0.66993462588412,0.6644794600460138,0.6653041843054087,0.6565254833698999,0.6520365424260002,0.6511907627722495,0.6497386304591626,0.6452617359154049,0.6393680355190754,0.6366158606618783,0.6317106501404341,0.628150455856779,0.6289811071214803,0.6217123307128265,0.6189247407401275,0.6137479674745308,0.6064394346556343,0.6020899223937627,0.601103732194199,0.5955335716864659,0.5964883183328981,0.5899641479074482,0.5827391940764817,0.582968120424382,0.576272902335581,0.576302850632318,0.5699007549687739,0.5702462440665279,0.5713834060591559,0.5635246612302508,0.5534654177115591,0.5564470355031219,0.5551758112780669,0.5535193556936481,0.5456261218647536,0.5446158181707274,0.5399695373459237,0.538133564074079,0.5352221127730888,0.538620366497981,12.974981175819567
train,sample_0028,0.6020287905088253,0.6067805808391071,0.6151440096765541,0.6231218520833087,0.6293066814790618,0.6329076438166882,0.6472233647372273,0.649319836321165,0.6631253465071452,0.6719957683507063,0.6783959631930078,0.6874037807579567,0.6952672124805391,0.7014343512689922,0.7103905047086497,0.7233086749867217,0.7298934543231715,0.7408884284679886,0.7491120731153352,0.7576108636213645,0.7612989307803141,0.7724462410415803,0.7872601287252254,0.7954181942173837,0.801336801038177,0.8051397536028679,0.8118974197711083,0.8218882306845543,0.8290905110903541,0.8304840059527014,0.8408631084013793,0.8456615193049434,0.849696918072909,0.8563953549284933,0.8549698987699357,0.8647597374441514,0.8636652078282815,0.8684528907310354,0.8663430895742001,0.872440072533452,0.872774251345322,0.8763477033387685,0.8757286926034609,0.8740041593912359,0.8688638666541391,0.8712549491708805,0.864145046074642,0.8666321005070601,0.8615556704635097,0.8528329093116689,0.8558494005402382,0.8518880192142534,0.8423996033017034,0.8371232466082532,0.832931457475105,0.8270155697562589,0.8210032797425078,0.8154833892475623,0.8075261753179841,0.8001264427294997,0.790882545827013,0.7819918672287811,0.7725270545637732,0.7710946478457646,0.7638851962952683,0.7498862897322591,0.7465782661412953,0.7356813568880622,0.7244432314826383,0.7157648667988625,0.7135581143248266,0.7070949070151423,0.6988695509098711,0.6931659839714841,0.6885505180846853,0.6734882137620992,0.6694541240778353,0.6626476691209837,0.654375425973546,0.6447358755258996,0.6443322299664853,0.6380077969304162,0.6334028004754371,0.6298288261589442,0.6210738223473992,0.6193165547201994,0.614395016219511,0.6056037592838734,0.6063848399944947,0.5950007248229026,0.5905930813117728,0.5886047869207105,0.5873703307260452,0.5814709282167065,0.5778776868399954,0.5809949160911573,0.5766298695296296,0.5711114694657962,0.5692859329437294,0.5671507517844608,0.5631847381297352,0.5643201348983627,0.5595999887116275,0.5554919050084817,0.5610124107134636,0.560864644690457,0.5569621515071786,0.5565920148556956,0.5519170932916138,0.5503223483369336,0.5530407548179045,0.5502848515246822,0.5503879328462412,0.549533662715085,0.5489957810551354,0.5511873640087182,0.5498206805280202,0.551161300354243,0.5483567686496587,0.546823070819384,0.5524981856065125,0.5521988066522139,0.5554099243669312,0.5563419021824866,0.5547469356545779,0.560648360422522,0.5519195070564895,0.5549205235721475,0.5546666216037375,0.5528721408245151,0.5575110502514331,0.5572700239446963,0.5553762016204041,0.5652420348523597,0.5607550779078228,0.5647823172692867,0.567215418695902,0.5693828899242694,0.5633900708877432,0.5728839240719592,0.5680574746443026,0.5723106849523355,0.5697125140045421,0.5666853834782788,0.5750814856779928,0.5770005565519408,0.5730279411402782,0.5759139934332286,0.5792850508388016,0.5771238566965908,0.5814654603737489,0.5813539060039331,0.5831539440108833,0.5808641353530565,0.5781711116271502,0.5823710676409224,0.5813443388645696,0.5799001157121427,0.5783834493816602,0.5800078525246025,0.5771869930945075,0.5776195901761696,0.5821633071926906,0.5777580743297571,0.5734554604458013,0.5744076786542635,0.5778914160528908,0.5746745954972492,0.5693193253418348,0.572032196912708,0.5702109913682334,0.564275733933804,0.5684232075501261,0.5658906907971964,0.5590472318401195,0.5581041310055528,0.5584213430900753,0.5563961141976724,0.5546924305644457,0.5547677233999213,0.5515375842979401,0.5483609184188527,0.5471243928403839,0.5434310826315047,0.5423234988684951,0.5401458853635895,0.5428524635517349,0.5427714923595344,0.53138468163349,0.5310505569023971,0.532077677636429,0.5274009524724645,0.5268645462466468,0.5249700130949374,0.5253737506032609,0.5294307966371361,0.523570655667302,0.5174329295134497,0.5192259787189183,0.5131169455965869,39.323089359518214
train,sample_0029,0.5744189828728284,0.5789326600642111,0.5852278072536757,0.5908710580784945,0.5943037851805713,0.6013762007779457,0.6052096131857204,0.6145687354871232,0.6177009089953218,0.6254484109792706,0.6333622788608846,0.6386063189498428,0.6401643004600345,0.652134044443843,0.6548666786672961,0.6716629667299919,0.6758185302037119,0.6767027290037771,0.6873902013044495,0.6907320477604229,0.6990310323692782,0.7028406277369458,0.7083303454817459,0.7124549917217643,0.720138711298971,0.7267514162471276,0.731863785002214,0.734871661153716,0.7482636641158458,0.7509994085581928,0.752822284051814,0.7553086179361569,0.755401759080021,0.7633742763126115,0.7620972323574733,0.7707025135414906,0.7695927205233228,0.768173098327433,0.7672881511846302,0.7752922961596167,0.7727910636149004,0.7722308165787914,0.7699101313069031,0.7718530611332556,0.7722578518219649,0.7624538416202635,0.7639426711370395,0.7585470982751066,0.758329236947684,0.751307924847431,0.7524666452441287,0.7498519571680684,0.7425188415602647,0.7373191744720108,0.7342272595866659,0.7261957191046148,0.721438102756455,0.7179438176694615,0.7143902642697151,0.7090738639763989,0.6998779789909563,0.6934276360411052,0.6865985520968345,0.6828790921056707,0.6838291217229953,0.6689914008769253,0.6608646869317909,0.6646670112766642,0.6524096081277531,0.6461295307653347,0.6489035350328659,0.6416059896067161,0.6342257801543287,0.6270678621235387,0.6212837695452785,0.6138120151450155,0.6208847108817077,0.6120320270373092,0.6046528435869245,0.6024492925477659,0.6002462750280111,0.5957256698968554,0.5936642824825127,0.5902190390985781,0.591101181044099,0.5826323228386403,0.58369136863095,0.5782318516638948,0.5834327001176681,0.5792579868794681,0.5780022573549156,0.578491577124193,0.5746067698861668,0.5780724909982315,0.5796923345006758,0.5736051143685341,0.5777652915351073,0.5828403816394995,0.5824480429650798,0.5881081399796332,0.5822223084291139,0.5828625916532831,0.5887579593933913,0.5894624384031449,0.5865815779385516,0.5941545436848391,0.5895948605391548,0.5920804735712164,0.5978042297795368,0.5981044548886874,0.6026405799547281,0.5990234548426573,0.6060303888150284,0.604310744077239,0.6101715807232729,0.6160631768852826,0.6168446818109564,0.6178423087869572,0.6235335656365636,0.6244153123203239,0.6290323997887549,0.6289403213531206,0.6292141875568675,0.6354907102570359,0.6349761590481131,0.6396622811543844,0.6423951876910732,0.6410440089873416,0.6457697986737159,0.6490646716644632,0.6517409828137043,0.65433468814225,0.6549141526894933,0.654593510736572,0.66402903722966,0.6614995186879286,0.6641532599413187,0.6624242731819088,0.6658435352999799,0.6747529447824349,0.6771149987157525,0.6748754292115102,0.6737573046235124,0.6758500865207602,0.6758080506417341,0.6806127160866882,0.68267036062552,0.683454576441743,0.6844312091293874,0.6794264797457283,0.6806505002727816,0.682141477358214,0.6863427078881357,0.681215154103141,0.6879233977780563,0.6835380293503469,0.6806443402723915,0.683891783617732,0.6810835253981007,0.6831120005274572,0.679854749128088,0.6758997996166799,0.678076939431164,0.6759621872734665,0.6676934266699119,0.6657995847635508,0.6648901098440776,0.6665108087294678,0.660392240176726,0.6566901906220051,0.6539564650844447,0.6529345488206928,0.6461573791155064,0.6471793926762502,0.6395635978384748,0.6323666968246937,0.6288476714800549,0.6334799250315151,0.6253152006952633,0.6207328089307549,0.6188853290914692,0.6121932159966985,0.6072272816495692,0.604557769908883,0.6040215457227261,0.5990127679894289,0.5952119016753021,0.5883019860746528,0.5848426147657054,0.5805645441730434,0.5814948904922561,0.5746390625515819,0.5701253505600011,0.574065625592187,0.5657514418774978,0.5565415286184867,0.5592625243731542,0.5527506188536689,0.5522308368798153,0.5504814048935519,27.091712187577603
train,sample_0030,0.49999802546273864,0.4985032482332945,0.5039162014653565,0.5053227303169202,0.5052346275902482,0.5097758914589464,0.5057482907080528,0.5039065637741565,0.5030475101260089,0.5068548836780365,0.505761834125166,0.5096645194615808,0.5106344108416975,0.5085573131078062,0.5069652356981796,0.5095966619463098,0.5167371767792747,0.5134898038781748,0.5175510823444737,0.5147420665245704,0.51864900585464,0.5202693938772547,0.5241252851094186,0.5261991028352747,0.5232465576003883,0.5293692729136388,0.5374358457030459,0.5384270583222797,0.5374791786570396,0.5422054652066051,0.5440979560771398,0.5459454278905184,0.5553323346736692,0.5579542494301575,0.563022411329567,0.5619692550581917,0.5736358825244932,0.5772800655989931,0.5798775000299349,0.58543713686232,0.5913745257349573,0.5979744415557424,0.6023142282676408,0.6051424476297999,0.6174845163502141,0.6200905910208867,0.6333356421910339,0.6374923469192965,0.6480198532989693,0.6538060195913352,0.6570407859096237,0.6635260679053081,0.673548909846029,0.6790162422513853,0.6873323100112629,0.7037597870274095,0.7047889332635308,0.7150973199742681,0.7238903424763075,0.7309085237035255,0.7368211010649903,0.744705588539364,0.7534271309213546,0.7602317958520209,0.766962265517477,0.7713971201030669,0.7798673891223091,0.785294402520027,0.78968215311811,0.797086664751363,0.8105437924582984,0.811583703154652,0.8157932896123621,0.8202793110675888,0.8212033955059025,0.826470198422427,0.8282235484355284,0.8359609685102616,0.836985164355326,0.8417580755684225,0.8417747602134726,0.8455445505212007,0.8450406752191968,0.8439337034180564,0.8453370119943127,0.8463841226049587,0.8441096056083457,0.8461700032935735,0.8373186139452518,0.8434964786810726,0.8338087373933697,0.8355482704578813,0.8312788990986217,0.8266308581315183,0.8287568365544692,0.8263471050050541,0.8191881060678956,0.8170709824469339,0.809268896879473,0.810938643070021,0.8031105895268237,0.8011748186090341,0.7933074702707352,0.7908029820906141,0.7843810758745893,0.7727624683917861,0.7721624741081349,0.7703733951868569,0.7640110587057267,0.7573923587736757,0.7550424211694791,0.7491803645184932,0.7458207008202069,0.7381327652787916,0.7282460538453781,0.73066470902336,0.7249643514427953,0.7218415678268901,0.7174265919264722,0.7154012978074221,0.7125771293877011,0.7053684890338863,0.7015736848258147,0.6975359221988372,0.6917294337429157,0.6866676240463296,0.6837738499615886,0.688462916209071,0.6823554041497731,0.6794029161394973,0.6746844162201775,0.6734521054476994,0.6705146279577854,0.6642764507959704,0.663729898987436,0.662463714062949,0.6619477610864211,0.6604651207375674,0.6532417262388512,0.6528729019257639,0.6538918471943932,0.6505784904706284,0.6463633189907115,0.649350220477831,0.6446032395686341,0.6422897005585899,0.6421551072566092,0.6358925673246225,0.6352642136799176,0.637430845615468,0.6346214996362225,0.6287965220712963,0.6295209978625222,0.6257272936086725,0.6236978284341187,0.6234471388425008,0.6226304057010604,0.6194471697265842,0.6184526157794146,0.6145028577054457,0.6188558592229859,0.6189994679601682,0.6102729959232857,0.607576443911099,0.6063278549281208,0.6057707938349803,0.6027468997788344,0.5995301167351562,0.597645330642846,0.5953181280091029,0.5925593500504945,0.5925157027613396,0.5838869708032225,0.58096796884759,0.5865175994073903,0.5779670759674544,0.5768639781252282,0.5770104137115661,0.5727479316876329,0.570201749207701,0.567952015563156,0.5659625159442979,0.5625615205776678,0.558047387830706,0.5568867898616443,0.5519575294911017,0.5550668878945162,0.5499953540787574,0.5469099066617829,0.5451805962184803,0.539860473144571,0.5386473271262653,0.5445089773241942,0.5303791568791455,0.5334481914137214,0.534455795953147,0.5302477440858923,0.524834892857869,0.5253727135629999,0.5281166143263943,20.630115560846292
