1100;1105;1110;1115;1120;1125;1130;1135;1140;1145;1150;1155;1160;1165;1170;1175;1180;1185;1190;1195;1200;1205;1210;1215;1220;1225;1230;1235;1240;1245;1250;1255;1260;1265;1270;1275;1280;1285;1290;1295;1301;1306;1311;1316;1321;1326;1331;1336;1341;1346;1351;1356;1361;1366;1371;1376;1381;1386;1391;1396;1401;1406;1411;1416;1421;1426;1431;1436;1441;1446;1451;1456;1461;1466;1471;1476;1481;1486;1491;1496;1502;1507;1512;1517;1522;1527;1532;1537;1542;1547;1552;1557;1562;1567;1572;1577;1582;1587;1592;1597;1602;1607;1612;1617;1622;1627;1632;1637;1642;1647;1652;1657;1662;1667;1672;1677;1682;1687;1692;1697;1703;1708;1713;1718;1723;1728;1733;1738;1743;1748;1753;1758;1763;1768;1773;1778;1783;1788;1793;1798;1803;1808;1813;1818;1823;1828;1833;1838;1843;1848;1853;1858;1863;1868;1873;1878;1883;1888;1893;1898;1904;1909;1914;1919;1924;1929;1934;1939;1944;1949;1954;1959;1964;1969;1974;1979;1984;1989;1994;1999;2004;2009;2014;2019;2024;2029;2034;2039;2044;2049;2054;2059;2064;2069;2074;2079;2084;2089;2094;2100
0.621551;0.634787;0.635249;0.645657;0.652491;0.664597;0.673086;0.686879;0.692545;0.703400;0.714817;0.724717;0.731340;0.743648;0.755018;0.769072;0.777253;0.787074;0.801475;0.808767;0.821043;0.826235;0.840397;0.847521;0.859999;0.866902;0.876489;0.888794;0.892432;0.902808;0.907536;0.913949;0.919423;0.928028;0.932524;0.936817;0.942227;0.944758;0.946584;0.948674;0.947345;0.947663;0.949455;0.941026;0.942393;0.939876;0.936875;0.937614;0.927431;0.925950;0.920178;0.914997;0.910766;0.901644;0.896906;0.883727;0.878258;0.870806;0.858496;0.849710;0.843234;0.833054;0.823231;0.814805;0.805538;0.793407;0.784903;0.773246;0.761699;0.758370;0.746230;0.737742;0.726613;0.717253;0.713632;0.704753;0.691389;0.686163;0.678587;0.672906;0.662700;0.652908;0.648300;0.639601;0.633932;0.630830;0.620401;0.615808;0.610666;0.605689;0.598743;0.597522;0.591473;0.585364;0.585115;0.579628;0.574763;0.575256;0.563392;0.565442;0.558751;0.561010;0.558457;0.562325;0.555112;0.551714;0.549546;0.549473;0.546201;0.548760;0.542502;0.540435;0.545266;0.541304;0.546115;0.541044;0.538889;0.537878;0.534840;0.532477;0.538368;0.534410;0.527704;0.528057;0.529875;0.530090;0.528299;0.530649;0.527965;0.524849;0.525737;0.526756;0.529193;0.521101;0.524662;0.521307;0.520237;0.522860;0.521601;0.519657;0.515911;0.522722;0.516584;0.520036;0.514814;0.516015;0.517957;0.519710;0.514041;0.509348;0.513174;0.512869;0.511530;0.514359;0.509640;0.513146;0.513716;0.514604;0.507096;0.511695;0.508973;0.509459;0.505921;0.506951;0.508362;0.509489;0.507893;0.508117;0.502125;0.505986;0.503573;0.498606;0.505852;0.507317;0.503472;0.504980;0.503223;0.503872;0.501905;0.501159;0.500645;0.501807;0.500168;0.502520;0.500303;0.504400;0.502799;0.502573;0.500744;0.502164;0.506786;0.502333;0.500791;0.501883;0.500382;0.501992;0.506040;0.495691;0.499896;0.500193
0.506670;0.509998;0.507469;0.509278;0.510953;0.513346;0.511515;0.511547;0.515169;0.516223;0.516121;0.514440;0.515440;0.520871;0.520936;0.519546;0.521424;0.523423;0.523556;0.524990;0.528753;0.532113;0.528919;0.525378;0.529851;0.532217;0.531777;0.538213;0.538499;0.540606;0.543394;0.543668;0.547098;0.541662;0.546151;0.551975;0.551114;0.550784;0.551107;0.557847;0.557152;0.566338;0.566460;0.565902;0.567667;0.569237;0.577974;0.572177;0.578451;0.578638;0.582678;0.584471;0.588736;0.593941;0.588605;0.593823;0.594928;0.602458;0.601313;0.600944;0.605208;0.608595;0.613625;0.613483;0.611967;0.616292;0.617560;0.622931;0.621387;0.625339;0.625848;0.624712;0.630530;0.622691;0.628066;0.631215;0.630654;0.630514;0.637005;0.637840;0.636074;0.637375;0.632453;0.630874;0.634100;0.633414;0.631693;0.631396;0.630855;0.631759;0.633107;0.626635;0.628445;0.630357;0.628825;0.625911;0.629041;0.624145;0.627295;0.626032;0.628208;0.622303;0.620990;0.623958;0.622906;0.623939;0.626795;0.621222;0.622171;0.624384;0.623652;0.627762;0.629554;0.629720;0.634058;0.634782;0.639484;0.645860;0.645916;0.649336;0.648046;0.653889;0.658780;0.662404;0.672700;0.673072;0.680442;0.687869;0.686913;0.695541;0.697791;0.708650;0.717515;0.721299;0.730695;0.735518;0.741712;0.753417;0.751121;0.764996;0.771075;0.773815;0.780491;0.784670;0.795743;0.797019;0.801156;0.809995;0.813695;0.821321;0.819424;0.827912;0.827762;0.826271;0.831950;0.833248;0.835961;0.835774;0.836311;0.834583;0.835925;0.833056;0.828908;0.830412;0.821687;0.821696;0.820590;0.818633;0.812027;0.806886;0.801394;0.792750;0.787203;0.784573;0.776374;0.770449;0.766143;0.749878;0.742724;0.739770;0.732491;0.719401;0.716151;0.706301;0.694059;0.691128;0.679625;0.677664;0.667157;0.660683;0.648933;0.644934;0.638149;0.632468;0.621969;0.619967;0.610090;0.603744;0.596787;0.588705
0.508151;0.512713;0.511922;0.512177;0.515010;0.513687;0.517483;0.513691;0.518500;0.522274;0.522382;0.522802;0.519968;0.528055;0.525322;0.524725;0.527628;0.525780;0.531616;0.529322;0.532523;0.538437;0.531342;0.543516;0.543060;0.538027;0.540038;0.544051;0.549583;0.547202;0.551649;0.557860;0.556102;0.558938;0.558719;0.564919;0.567993;0.570268;0.567575;0.573057;0.576646;0.577913;0.578837;0.586291;0.583763;0.585318;0.593126;0.594836;0.594542;0.593685;0.602230;0.605605;0.609093;0.615481;0.619392;0.617232;0.618978;0.621394;0.625310;0.627594;0.628191;0.632360;0.632888;0.635573;0.646898;0.642462;0.641838;0.651507;0.652894;0.653957;0.653119;0.654871;0.657297;0.657892;0.659014;0.660682;0.660202;0.664224;0.664868;0.657167;0.667753;0.668915;0.666558;0.658620;0.665096;0.666254;0.661000;0.663693;0.663189;0.659259;0.659529;0.657524;0.658286;0.659149;0.656880;0.657630;0.655851;0.650271;0.656051;0.653753;0.650880;0.649161;0.646956;0.646789;0.650761;0.647211;0.647827;0.647683;0.650296;0.647316;0.652216;0.655402;0.649147;0.654884;0.653654;0.654804;0.656890;0.656475;0.660625;0.659787;0.661410;0.667282;0.668040;0.671688;0.675614;0.682549;0.684723;0.690810;0.694764;0.702038;0.705183;0.706186;0.710080;0.713633;0.718065;0.721056;0.728790;0.739732;0.738796;0.742871;0.750696;0.752603;0.761017;0.761637;0.769894;0.772161;0.771141;0.780718;0.783974;0.780653;0.787228;0.787070;0.791051;0.790512;0.797266;0.797292;0.792642;0.797873;0.797046;0.796853;0.794235;0.790916;0.789273;0.789203;0.784427;0.778862;0.780276;0.773227;0.770481;0.762679;0.761037;0.753331;0.751102;0.746227;0.744218;0.741244;0.727215;0.717372;0.714323;0.704474;0.699272;0.693815;0.689526;0.681475;0.669960;0.668263;0.658183;0.649611;0.647982;0.634917;0.630265;0.628095;0.620072;0.611191;0.603087;0.601493;0.592530;0.589805;0.586798;0.584175
0.509112;0.508853;0.506482;0.511690;0.508989;0.507712;0.512042;0.516400;0.512721;0.507713;0.516221;0.516596;0.516374;0.513284;0.519671;0.518904;0.521600;0.520058;0.519671;0.525403;0.520977;0.527003;0.525862;0.529780;0.526195;0.533830;0.528903;0.534705;0.534139;0.534940;0.539171;0.538228;0.539946;0.544948;0.545270;0.545561;0.553440;0.549892;0.555024;0.554678;0.555716;0.562733;0.560844;0.564611;0.565198;0.566183;0.569408;0.571597;0.575568;0.579926;0.582302;0.586105;0.592359;0.587996;0.595214;0.594749;0.599160;0.605246;0.607824;0.607112;0.610684;0.613852;0.618548;0.621368;0.621874;0.630096;0.630904;0.636415;0.636375;0.638738;0.641014;0.649019;0.646379;0.650054;0.648494;0.657390;0.657241;0.659428;0.662482;0.662027;0.666722;0.669407;0.673784;0.672072;0.675108;0.678906;0.681735;0.679773;0.684501;0.681830;0.689624;0.682628;0.691173;0.688767;0.691187;0.695084;0.697031;0.697437;0.699495;0.705972;0.702096;0.704303;0.708025;0.711504;0.707909;0.708873;0.717779;0.714392;0.718456;0.718283;0.719505;0.725211;0.724512;0.723670;0.730417;0.732664;0.730183;0.732183;0.735616;0.737497;0.732740;0.741088;0.738990;0.741704;0.746099;0.748932;0.748382;0.747976;0.748283;0.749467;0.748445;0.753472;0.755388;0.754303;0.759917;0.757159;0.760263;0.764585;0.763503;0.759853;0.762178;0.764152;0.765981;0.769714;0.765252;0.768049;0.766287;0.765438;0.763250;0.765085;0.765950;0.762703;0.766036;0.756266;0.760942;0.759352;0.760019;0.757709;0.749781;0.746795;0.754115;0.743937;0.744209;0.735820;0.734604;0.730449;0.727871;0.719904;0.719439;0.713113;0.706368;0.703142;0.698060;0.689538;0.686280;0.677514;0.672274;0.671979;0.661061;0.660522;0.655339;0.644307;0.644887;0.636511;0.630097;0.625396;0.618599;0.612150;0.605782;0.604253;0.598607;0.592481;0.593789;0.585375;0.581327;0.574321;0.567473;0.565934;0.555393;0.552837
0.600496;0.604389;0.611988;0.616888;0.625304;0.637249;0.642300;0.652367;0.660984;0.668177;0.675880;0.681175;0.695970;0.704071;0.708918;0.719712;0.728791;0.736505;0.750211;0.752663;0.763566;0.775428;0.783419;0.791687;0.802968;0.805669;0.815145;0.821186;0.828125;0.834721;0.843384;0.850677;0.852139;0.858808;0.862877;0.869915;0.874194;0.877713;0.881671;0.879012;0.885512;0.886001;0.888755;0.880761;0.885253;0.882922;0.883046;0.878848;0.875431;0.875166;0.871595;0.863685;0.857039;0.857221;0.855428;0.847982;0.839321;0.833785;0.828729;0.826411;0.821767;0.809850;0.802177;0.801539;0.791345;0.780121;0.778154;0.768156;0.765493;0.756537;0.749269;0.741350;0.734804;0.725717;0.718851;0.714479;0.712453;0.695607;0.688901;0.686042;0.681968;0.676996;0.673921;0.660796;0.655908;0.653030;0.649224;0.642194;0.634736;0.630214;0.624448;0.621124;0.616909;0.613936;0.614038;0.600860;0.599186;0.595543;0.592791;0.586891;0.583802;0.581152;0.580755;0.574592;0.573064;0.570239;0.570379;0.564865;0.562127;0.563380;0.559608;0.559618;0.548548;0.552414;0.553716;0.551453;0.551119;0.548597;0.551901;0.549311;0.551882;0.545836;0.547323;0.548664;0.547498;0.550669;0.542925;0.546705;0.543751;0.550274;0.546127;0.551760;0.551544;0.555193;0.552819;0.552949;0.554623;0.551875;0.554582;0.559794;0.562262;0.557553;0.564560;0.564389;0.560179;0.559961;0.561919;0.566007;0.563547;0.564409;0.565242;0.566498;0.571906;0.570048;0.570079;0.571073;0.568531;0.575162;0.572527;0.576281;0.569536;0.567593;0.568378;0.566397;0.565655;0.568347;0.568004;0.570171;0.567857;0.566143;0.568881;0.561909;0.566180;0.563675;0.559334;0.558938;0.560525;0.556693;0.554653;0.552647;0.552297;0.552634;0.551046;0.551795;0.547994;0.545386;0.545345;0.542406;0.537650;0.542705;0.538347;0.538208;0.536281;0.538038;0.534023;0.535032;0.532871;0.531556;0.523052;0.523754
0.506257;0.501728;0.506627;0.508951;0.510015;0.506667;0.512104;0.514229;0.515179;0.510753;0.515608;0.512261;0.510739;0.519608;0.515429;0.517270;0.517070;0.520730;0.523089;0.520891;0.521839;0.524980;0.524834;0.523690;0.528821;0.529447;0.532727;0.533652;0.538338;0.536100;0.541620;0.538302;0.539474;0.539846;0.543565;0.550722;0.549790;0.552904;0.556054;0.557479;0.558840;0.566562;0.562658;0.569165;0.571830;0.571986;0.574688;0.581919;0.583500;0.584581;0.588632;0.594742;0.594062;0.598919;0.597973;0.610866;0.612158;0.616025;0.614581;0.624777;0.623516;0.632404;0.634341;0.635971;0.640307;0.648464;0.649849;0.650771;0.658757;0.659996;0.665874;0.674130;0.673164;0.676008;0.675273;0.678131;0.686375;0.691730;0.689793;0.695352;0.700001;0.701085;0.705156;0.709090;0.707488;0.715652;0.718392;0.716419;0.720609;0.723800;0.725088;0.727560;0.731762;0.734511;0.738574;0.738742;0.744671;0.737860;0.744574;0.744266;0.747950;0.749674;0.752033;0.755043;0.752695;0.756366;0.762333;0.759050;0.760165;0.764570;0.767604;0.767403;0.768107;0.766223;0.770704;0.773016;0.770478;0.774249;0.773774;0.773889;0.771672;0.769456;0.777309;0.773839;0.773339;0.775300;0.771937;0.774122;0.773562;0.773519;0.769472;0.770319;0.765632;0.764763;0.765392;0.762224;0.758798;0.760164;0.759675;0.762153;0.756291;0.755639;0.758029;0.758391;0.752410;0.749568;0.747118;0.747503;0.741622;0.736432;0.733896;0.732624;0.730977;0.725736;0.725934;0.723543;0.719218;0.718984;0.717294;0.709412;0.707769;0.703428;0.694546;0.692199;0.688537;0.687070;0.681834;0.677549;0.668321;0.666781;0.665345;0.657993;0.659005;0.655181;0.648414;0.645345;0.637662;0.633587;0.630257;0.623782;0.618694;0.616203;0.608908;0.607581;0.603812;0.600729;0.591136;0.593923;0.585504;0.577798;0.574289;0.572893;0.573716;0.565016;0.565622;0.557530;0.555630;0.553758;0.548249;0.548608
0.561529;0.566932;0.567853;0.576697;0.578893;0.584214;0.585802;0.593729;0.596924;0.599739;0.610571;0.614377;0.616630;0.618362;0.627532;0.629634;0.638535;0.638970;0.646779;0.648748;0.659332;0.666730;0.668568;0.676493;0.676816;0.682342;0.691294;0.696690;0.701489;0.707911;0.710055;0.714179;0.719197;0.721213;0.724285;0.728738;0.731563;0.736046;0.737183;0.741528;0.741204;0.741457;0.743583;0.748094;0.749619;0.750036;0.752444;0.750094;0.750463;0.750643;0.748067;0.748975;0.743735;0.745403;0.749162;0.743517;0.743245;0.744643;0.739587;0.737710;0.741127;0.735615;0.732885;0.732680;0.733106;0.725268;0.727314;0.724243;0.716725;0.715842;0.716652;0.713900;0.712958;0.706361;0.705714;0.704133;0.702102;0.697765;0.697575;0.699618;0.693937;0.689214;0.694464;0.684903;0.685513;0.682795;0.679627;0.684379;0.675449;0.681072;0.680271;0.675604;0.668450;0.672620;0.675324;0.667152;0.667186;0.663645;0.661031;0.665096;0.663951;0.663520;0.659705;0.660895;0.663774;0.662748;0.654535;0.651691;0.655330;0.657571;0.654415;0.655128;0.648863;0.653449;0.649131;0.647231;0.648528;0.645878;0.648731;0.641189;0.647478;0.645920;0.642026;0.639893;0.637977;0.643212;0.643806;0.641754;0.638266;0.636192;0.642095;0.634599;0.639132;0.635280;0.631593;0.628957;0.628437;0.632110;0.633598;0.629763;0.629947;0.628016;0.623277;0.622029;0.625870;0.620051;0.625887;0.621829;0.618032;0.619223;0.621219;0.616711;0.613877;0.615399;0.611552;0.608794;0.606805;0.600622;0.606064;0.602030;0.604508;0.597741;0.600073;0.597748;0.596360;0.590485;0.591410;0.581734;0.592550;0.583490;0.581756;0.575516;0.574709;0.575634;0.569537;0.567133;0.570454;0.561971;0.563564;0.558633;0.554594;0.552217;0.547469;0.548831;0.550593;0.545651;0.540086;0.541013;0.533442;0.534133;0.532183;0.530059;0.528173;0.524525;0.526153;0.523726;0.520667;0.518154;0.517468;0.514076
0.531735;0.525529;0.530492;0.536977;0.528986;0.534537;0.539859;0.542641;0.537392;0.544766;0.550626;0.549051;0.550786;0.554646;0.558901;0.562970;0.562088;0.563030;0.567878;0.571096;0.573363;0.578012;0.581288;0.582132;0.580209;0.587846;0.586373;0.590374;0.593826;0.593463;0.600435;0.599268;0.603717;0.602892;0.607898;0.601191;0.606506;0.610773;0.613667;0.620952;0.619489;0.620728;0.621075;0.624233;0.625607;0.620565;0.621854;0.626032;0.627204;0.626117;0.629254;0.632208;0.630678;0.631297;0.630232;0.630652;0.631759;0.633152;0.631313;0.634599;0.634557;0.635716;0.636457;0.644206;0.636260;0.641906;0.636700;0.644050;0.645125;0.645996;0.650219;0.646842;0.649085;0.650591;0.649563;0.655536;0.658190;0.658691;0.662537;0.665720;0.670168;0.671684;0.673615;0.674670;0.683264;0.684882;0.685770;0.691454;0.695308;0.698210;0.700479;0.700772;0.709093;0.718709;0.717937;0.728122;0.723764;0.727640;0.733215;0.734995;0.738224;0.748423;0.750951;0.750000;0.755672;0.759081;0.765465;0.768003;0.766976;0.763689;0.774359;0.775755;0.777662;0.781032;0.785966;0.783131;0.784776;0.785792;0.786999;0.793972;0.790976;0.789677;0.784365;0.782635;0.785308;0.788406;0.783938;0.777289;0.776172;0.777457;0.779176;0.770002;0.776286;0.768690;0.766584;0.764643;0.758853;0.758542;0.750290;0.745027;0.743220;0.737822;0.737463;0.735893;0.725780;0.721943;0.715916;0.713508;0.709199;0.705073;0.703649;0.700681;0.694668;0.689418;0.684083;0.679727;0.675768;0.670908;0.666273;0.660448;0.658010;0.646597;0.648599;0.643002;0.637777;0.631713;0.633839;0.623654;0.626874;0.620518;0.617864;0.609275;0.609629;0.599301;0.602057;0.595275;0.591825;0.588226;0.584177;0.585182;0.573787;0.573595;0.573563;0.570591;0.567491;0.562572;0.558943;0.556835;0.545490;0.555839;0.550310;0.551617;0.547284;0.544099;0.539411;0.539943;0.530533;0.531661;0.535709;0.523890
0.548498;0.557391;0.553746;0.557609;0.563340;0.567677;0.569571;0.572308;0.571270;0.578807;0.588000;0.589176;0.596636;0.599770;0.601784;0.610389;0.613900;0.617997;0.620789;0.628901;0.635011;0.637128;0.638876;0.641731;0.646089;0.650664;0.663552;0.661040;0.662351;0.664521;0.676585;0.674684;0.678349;0.683908;0.688974;0.690522;0.690038;0.688465;0.692780;0.694479;0.703442;0.698828;0.698785;0.709431;0.697646;0.707664;0.708831;0.705106;0.702955;0.704751;0.704781;0.699462;0.707958;0.705157;0.698796;0.697148;0.696367;0.693653;0.697552;0.697859;0.690977;0.694032;0.689889;0.687424;0.687950;0.682563;0.682684;0.683159;0.681200;0.672318;0.672833;0.665765;0.667271;0.669575;0.660111;0.661115;0.658274;0.656981;0.653684;0.653426;0.649838;0.648232;0.646934;0.643436;0.642234;0.639952;0.634907;0.634657;0.637041;0.628953;0.626350;0.622455;0.622834;0.622232;0.623083;0.618007;0.618030;0.613540;0.619370;0.615100;0.615589;0.613414;0.608774;0.611090;0.609550;0.613701;0.610648;0.615203;0.610942;0.606059;0.611974;0.616434;0.609396;0.613328;0.615744;0.615105;0.616726;0.620429;0.619764;0.620546;0.625508;0.625572;0.626941;0.628502;0.632507;0.635015;0.633739;0.640212;0.636796;0.642826;0.647520;0.648831;0.652994;0.658451;0.658035;0.658911;0.664408;0.671750;0.674949;0.677852;0.679759;0.680671;0.685228;0.686501;0.686408;0.687248;0.696523;0.695226;0.698956;0.704375;0.702789;0.704071;0.706851;0.706408;0.708253;0.705629;0.708611;0.704258;0.705678;0.703870;0.704572;0.705506;0.706028;0.702072;0.699614;0.698957;0.690157;0.689285;0.682923;0.685292;0.679029;0.680044;0.671389;0.671862;0.667128;0.656996;0.655868;0.651631;0.651656;0.643015;0.637910;0.632446;0.625724;0.620004;0.619087;0.611779;0.608344;0.603781;0.597590;0.594087;0.586973;0.583837;0.580487;0.575703;0.573508;0.571201;0.563871;0.557313;0.559558;0.554800
0.520330;0.522280;0.520348;0.528203;0.526984;0.529518;0.529463;0.537400;0.536056;0.541228;0.539472;0.542482;0.546560;0.548858;0.553034;0.555851;0.555609;0.561062;0.562154;0.565005;0.564436;0.572391;0.578309;0.582691;0.586039;0.586058;0.595493;0.593694;0.596748;0.605683;0.611665;0.609807;0.615155;0.619167;0.626861;0.635100;0.634503;0.647902;0.648435;0.659956;0.657564;0.665935;0.672874;0.678788;0.679490;0.686004;0.695818;0.699495;0.705933;0.713467;0.720856;0.725889;0.730745;0.739142;0.748299;0.754668;0.754537;0.768472;0.767373;0.778848;0.779674;0.783401;0.795406;0.799248;0.803651;0.811445;0.814543;0.818188;0.829382;0.830268;0.827814;0.836977;0.842385;0.840123;0.848161;0.846454;0.849536;0.848516;0.849901;0.852303;0.851583;0.850450;0.848005;0.842664;0.844039;0.842872;0.838504;0.840926;0.835171;0.827965;0.826823;0.824788;0.819012;0.810211;0.809349;0.800791;0.792476;0.788194;0.781964;0.772390;0.769106;0.766562;0.765255;0.752577;0.746521;0.745229;0.729247;0.730108;0.721092;0.713337;0.711082;0.701714;0.694881;0.694007;0.686773;0.679318;0.673958;0.666252;0.666529;0.656445;0.655354;0.646970;0.649745;0.644735;0.643069;0.633920;0.636097;0.626980;0.628663;0.621897;0.623658;0.617849;0.616712;0.610919;0.615722;0.609147;0.611163;0.610779;0.602981;0.606791;0.602942;0.604183;0.598063;0.603193;0.599896;0.596312;0.597987;0.595452;0.593065;0.591620;0.595579;0.591741;0.596081;0.590702;0.587434;0.583734;0.587795;0.586262;0.580561;0.577899;0.583537;0.580883;0.577552;0.581531;0.577367;0.577306;0.575281;0.573102;0.571235;0.564534;0.569183;0.565556;0.567195;0.560171;0.559429;0.557643;0.560543;0.555219;0.553856;0.554483;0.550008;0.550534;0.542354;0.545379;0.542936;0.538102;0.538302;0.535977;0.540118;0.535034;0.537343;0.535122;0.529104;0.528026;0.526727;0.525329;0.529610;0.520242;0.519329;0.521004
0.531871;0.538800;0.535205;0.542010;0.543175;0.548305;0.552534;0.558128;0.553728;0.561732;0.564338;0.569343;0.567839;0.570486;0.573271;0.580164;0.583782;0.584811;0.590015;0.595965;0.597198;0.600738;0.602984;0.610502;0.608770;0.618129;0.615018;0.615840;0.623979;0.628697;0.630502;0.628102;0.632458;0.637384;0.635649;0.641173;0.644009;0.645165;0.646966;0.650618;0.652099;0.651910;0.656875;0.655741;0.656103;0.660949;0.659880;0.659626;0.664658;0.667149;0.661639;0.659573;0.663970;0.662075;0.667419;0.666579;0.670719;0.666845;0.667959;0.663665;0.668344;0.670846;0.669559;0.667276;0.669228;0.667611;0.666036;0.675455;0.667836;0.669982;0.673172;0.668570;0.669659;0.665735;0.675085;0.672626;0.667572;0.678702;0.668227;0.672456;0.670089;0.680144;0.678566;0.678082;0.681757;0.681140;0.677722;0.685177;0.680808;0.680562;0.687244;0.689872;0.691025;0.689209;0.689466;0.687981;0.693212;0.698473;0.697161;0.700441;0.697694;0.705621;0.702523;0.705469;0.709964;0.709536;0.708287;0.712814;0.708076;0.713340;0.716985;0.718541;0.718534;0.716070;0.720765;0.717598;0.716583;0.723503;0.721819;0.724099;0.725075;0.722456;0.720098;0.723461;0.724497;0.724702;0.724296;0.724140;0.722738;0.725851;0.724418;0.720178;0.719904;0.722483;0.718085;0.722078;0.713217;0.713008;0.712157;0.713174;0.709731;0.713194;0.705413;0.699306;0.701168;0.699622;0.698402;0.696099;0.692608;0.692484;0.689363;0.686664;0.688455;0.685262;0.679088;0.676643;0.678790;0.674469;0.671837;0.665357;0.661521;0.659884;0.658656;0.659152;0.650337;0.646318;0.646270;0.642035;0.637877;0.638385;0.626158;0.624050;0.619750;0.620384;0.617014;0.609966;0.610112;0.608585;0.602330;0.595702;0.591300;0.588930;0.587305;0.584140;0.575096;0.574398;0.571167;0.565248;0.564001;0.564017;0.559506;0.556166;0.553298;0.549787;0.545521;0.544320;0.543034;0.540355;0.534321;0.535126
0.538658;0.542128;0.544704;0.546909;0.547710;0.548279;0.554329;0.563501;0.555706;0.564234;0.573350;0.573362;0.573500;0.578830;0.579699;0.587868;0.591232;0.589694;0.596512;0.600866;0.603512;0.605260;0.609029;0.610055;0.612545;0.622035;0.622330;0.627262;0.627999;0.631107;0.638877;0.641859;0.647219;0.648804;0.654125;0.652847;0.658591;0.658170;0.660992;0.662463;0.666759;0.663973;0.668450;0.670572;0.668969;0.671344;0.676546;0.670614;0.676925;0.682056;0.676650;0.676642;0.679079;0.680009;0.682169;0.680260;0.678236;0.682868;0.677302;0.681310;0.677760;0.679726;0.680804;0.680100;0.677358;0.677730;0.676634;0.676261;0.673933;0.671189;0.673374;0.669720;0.671063;0.666872;0.670488;0.663584;0.663610;0.662588;0.662079;0.656580;0.652379;0.655062;0.647985;0.648443;0.647072;0.646145;0.643754;0.643113;0.638754;0.633697;0.633060;0.632466;0.623073;0.626378;0.623140;0.622624;0.615592;0.620589;0.613769;0.613463;0.614741;0.612417;0.613619;0.609547;0.607442;0.603964;0.604651;0.601278;0.606470;0.603626;0.605592;0.596715;0.604921;0.606810;0.604447;0.611055;0.609437;0.608945;0.607634;0.610585;0.618845;0.618602;0.624785;0.623460;0.630907;0.632495;0.637993;0.633623;0.645009;0.642930;0.651607;0.651401;0.663225;0.664622;0.668497;0.673004;0.675299;0.687462;0.685927;0.697041;0.699165;0.702755;0.704168;0.711482;0.718943;0.721797;0.725663;0.726285;0.731798;0.734960;0.737957;0.738046;0.747138;0.745716;0.753373;0.750445;0.749190;0.746878;0.751211;0.751818;0.749901;0.747903;0.751263;0.745476;0.745437;0.739401;0.740337;0.739864;0.733511;0.729513;0.727536;0.723241;0.722398;0.714038;0.708254;0.700685;0.695421;0.690517;0.683930;0.678802;0.674234;0.671817;0.664718;0.661402;0.653883;0.644257;0.641339;0.633182;0.628642;0.624673;0.614746;0.608327;0.600776;0.599875;0.598704;0.587031;0.586105;0.579177;0.581308;0.568489
0.624125;0.628341;0.638486;0.651927;0.658577;0.668519;0.674875;0.684223;0.701252;0.703239;0.713873;0.723736;0.740132;0.749504;0.762521;0.771584;0.778872;0.791157;0.797840;0.812711;0.824728;0.837012;0.844295;0.859592;0.863176;0.874527;0.883528;0.893515;0.900951;0.907643;0.913075;0.924890;0.926695;0.931959;0.938813;0.944577;0.944334;0.957460;0.952687;0.952145;0.955068;0.960314;0.955105;0.953468;0.955440;0.953407;0.948807;0.942698;0.937779;0.935340;0.927235;0.924564;0.915021;0.906311;0.900314;0.894512;0.886793;0.880392;0.865063;0.857792;0.854579;0.838236;0.830064;0.822811;0.813950;0.806767;0.791444;0.786774;0.771076;0.763737;0.750838;0.748004;0.738324;0.729398;0.717352;0.710440;0.703872;0.686351;0.681381;0.676340;0.666847;0.656135;0.648958;0.648117;0.634884;0.634330;0.620393;0.628365;0.612790;0.610020;0.607307;0.600956;0.591764;0.592968;0.583526;0.579506;0.574759;0.571580;0.570266;0.567659;0.566720;0.560302;0.557848;0.551117;0.555573;0.546785;0.548348;0.541332;0.545464;0.539137;0.537391;0.537224;0.541472;0.536836;0.534062;0.527108;0.523077;0.525816;0.526382;0.523857;0.530350;0.526606;0.521063;0.519104;0.521277;0.520296;0.520640;0.521062;0.517871;0.520490;0.516867;0.515909;0.516106;0.516514;0.516221;0.515716;0.513270;0.520065;0.515642;0.509943;0.512671;0.513430;0.515124;0.513196;0.514630;0.511527;0.514841;0.511087;0.512050;0.513514;0.510400;0.511450;0.511679;0.508235;0.508597;0.510953;0.509116;0.506820;0.515784;0.513599;0.512993;0.513975;0.508683;0.507389;0.510157;0.507920;0.506940;0.512835;0.504733;0.507183;0.510805;0.506318;0.506953;0.504670;0.506545;0.509206;0.505475;0.507455;0.503772;0.508738;0.508897;0.509190;0.506721;0.502392;0.509221;0.510793;0.505462;0.506365;0.505388;0.504674;0.504421;0.501676;0.504181;0.505395;0.502728;0.506436;0.502966;0.503646;0.504920;0.501706
0.499393;0.499118;0.499332;0.500960;0.504865;0.504635;0.504184;0.505147;0.504986;0.504781;0.505428;0.504822;0.506261;0.503948;0.508990;0.513669;0.507618;0.503448;0.512674;0.510309;0.510801;0.510750;0.508597;0.507973;0.509388;0.508125;0.517652;0.514961;0.516525;0.519988;0.516029;0.517547;0.518952;0.519808;0.515536;0.522959;0.522308;0.529017;0.522158;0.531507;0.530895;0.530970;0.533958;0.533937;0.538361;0.538615;0.535444;0.540679;0.539838;0.544416;0.546243;0.549234;0.553285;0.553634;0.555050;0.557988;0.560172;0.562281;0.557863;0.564513;0.570147;0.572225;0.573827;0.572870;0.576285;0.578695;0.580438;0.581915;0.585797;0.589882;0.587651;0.593916;0.593511;0.597861;0.601982;0.604694;0.608118;0.608089;0.606977;0.609868;0.610378;0.613128;0.614266;0.612920;0.616861;0.622367;0.623433;0.622748;0.624249;0.631428;0.631141;0.637867;0.635247;0.639493;0.637844;0.640359;0.644644;0.644895;0.647859;0.651533;0.654624;0.651557;0.658083;0.658907;0.664415;0.663992;0.666514;0.671264;0.676439;0.677924;0.681718;0.682559;0.686717;0.690562;0.691141;0.694448;0.697584;0.702854;0.705715;0.712405;0.714727;0.719435;0.728876;0.724372;0.735096;0.734967;0.743692;0.739783;0.750037;0.752490;0.759841;0.764463;0.768360;0.773309;0.777535;0.782823;0.783905;0.789607;0.798859;0.802798;0.802021;0.807374;0.809769;0.815071;0.818219;0.818165;0.827871;0.825568;0.824624;0.827106;0.831954;0.830913;0.832395;0.834782;0.833600;0.835107;0.835703;0.835665;0.833124;0.826630;0.826154;0.822711;0.826223;0.818241;0.818663;0.809098;0.801925;0.800948;0.796178;0.788539;0.783134;0.781763;0.774988;0.762217;0.759899;0.752017;0.746109;0.737764;0.729846;0.719179;0.712226;0.706739;0.699360;0.694905;0.684812;0.673902;0.666439;0.658824;0.650518;0.647123;0.639772;0.635437;0.622484;0.616194;0.611155;0.600486;0.594128;0.589477;0.585220;0.580994
0.559879;0.563413;0.565905;0.574003;0.572621;0.583169;0.589514;0.588799;0.598883;0.596522;0.606678;0.608359;0.620003;0.620630;0.626140;0.632974;0.640683;0.644680;0.648344;0.660060;0.656543;0.661783;0.672749;0.674106;0.674154;0.683644;0.688878;0.692303;0.697353;0.702647;0.705954;0.711074;0.713093;0.718847;0.718472;0.724175;0.721616;0.730559;0.726677;0.728997;0.730401;0.731041;0.733296;0.732762;0.733425;0.728259;0.733455;0.734968;0.731654;0.727071;0.727197;0.730068;0.726273;0.723744;0.714746;0.721054;0.712629;0.712285;0.709982;0.707989;0.703819;0.697962;0.696196;0.695214;0.696512;0.688598;0.684141;0.680479;0.677284;0.671663;0.669691;0.670611;0.672674;0.666418;0.661499;0.659891;0.662052;0.656929;0.653190;0.649708;0.653923;0.648480;0.648678;0.643171;0.647991;0.644028;0.648129;0.646067;0.642697;0.642387;0.644183;0.645398;0.643579;0.641599;0.639896;0.640098;0.638544;0.646397;0.642021;0.643950;0.642394;0.644613;0.647507;0.649720;0.651619;0.649581;0.650897;0.652241;0.655151;0.656601;0.657785;0.656103;0.659634;0.654008;0.661059;0.659497;0.665332;0.665787;0.660815;0.663058;0.663431;0.662906;0.659761;0.663453;0.663518;0.666636;0.666848;0.663419;0.664379;0.663827;0.664127;0.664326;0.665534;0.662178;0.665937;0.663373;0.664326;0.661487;0.662894;0.661697;0.663545;0.655594;0.655984;0.657201;0.661249;0.656221;0.654619;0.650314;0.652078;0.651093;0.649598;0.642983;0.642804;0.647403;0.645242;0.638508;0.632752;0.632370;0.634599;0.632452;0.621996;0.623659;0.620842;0.623678;0.617115;0.619678;0.616028;0.611877;0.606683;0.603521;0.600888;0.600989;0.597358;0.594384;0.589480;0.593590;0.583337;0.581036;0.576410;0.572519;0.573839;0.570063;0.561987;0.562755;0.557144;0.555050;0.552043;0.551176;0.552788;0.545074;0.540272;0.536986;0.537001;0.535621;0.533687;0.532765;0.523879;0.523740;0.521733;0.521347
0.595962;0.606641;0.614022;0.619496;0.625225;0.634606;0.638356;0.650582;0.654761;0.668597;0.670508;0.682177;0.691610;0.700870;0.707227;0.717938;0.722443;0.735896;0.744241;0.750605;0.758229;0.768973;0.784692;0.788628;0.798780;0.802263;0.811383;0.818784;0.827663;0.825276;0.832649;0.842316;0.850714;0.851275;0.859818;0.860914;0.863787;0.870794;0.869475;0.875015;0.868850;0.872757;0.871625;0.872325;0.868996;0.873959;0.868955;0.868959;0.867589;0.863273;0.859688;0.852308;0.849691;0.843058;0.838731;0.834311;0.827049;0.815585;0.817033;0.806799;0.798062;0.793785;0.795812;0.777818;0.776127;0.764221;0.762906;0.750151;0.743220;0.738586;0.729104;0.726718;0.718650;0.711248;0.702165;0.700245;0.694217;0.687117;0.685230;0.677803;0.677321;0.663899;0.665225;0.656365;0.655934;0.649264;0.643911;0.642312;0.637700;0.640059;0.632689;0.626565;0.627957;0.627198;0.626722;0.620190;0.617606;0.617125;0.615829;0.616978;0.616461;0.613749;0.611578;0.608126;0.608696;0.609575;0.604570;0.605581;0.606925;0.600792;0.601189;0.597817;0.601288;0.606134;0.594582;0.596881;0.600328;0.593299;0.589299;0.592616;0.592938;0.594221;0.588101;0.590672;0.594357;0.588697;0.589578;0.587830;0.581729;0.583897;0.586537;0.582386;0.579530;0.582171;0.578205;0.579161;0.577265;0.577109;0.571687;0.569435;0.569480;0.569280;0.568918;0.569577;0.565931;0.567154;0.567153;0.561230;0.563717;0.558260;0.558749;0.558130;0.559628;0.557851;0.552426;0.553641;0.550626;0.555201;0.552131;0.549719;0.544025;0.544891;0.543480;0.538349;0.541261;0.541086;0.545303;0.535806;0.540019;0.540124;0.536994;0.532173;0.529116;0.532606;0.534442;0.536338;0.527664;0.528470;0.526106;0.528020;0.523711;0.527300;0.525676;0.522961;0.520008;0.524057;0.520472;0.517324;0.523040;0.520118;0.516219;0.519697;0.519253;0.514727;0.515246;0.513133;0.515204;0.518299;0.512245;0.513695
0.539276;0.551697;0.548859;0.552842;0.557477;0.558378;0.563073;0.565861;0.567146;0.571582;0.579253;0.579094;0.586558;0.590426;0.592566;0.597996;0.603197;0.602349;0.608071;0.610473;0.613413;0.620382;0.621642;0.624476;0.630931;0.634971;0.638503;0.647214;0.649823;0.651464;0.655164;0.653306;0.660235;0.657908;0.661868;0.667815;0.659868;0.670164;0.672277;0.672390;0.671601;0.674807;0.676195;0.674733;0.679986;0.675798;0.679938;0.677165;0.678114;0.679707;0.678307;0.679618;0.675421;0.674328;0.679260;0.672549;0.674532;0.673833;0.669555;0.666529;0.669234;0.666121;0.670241;0.665075;0.666004;0.668539;0.663707;0.658635;0.659810;0.662586;0.661097;0.659917;0.661382;0.655704;0.655310;0.659376;0.656001;0.654716;0.659400;0.659865;0.655453;0.663583;0.664173;0.657145;0.659336;0.664592;0.660110;0.664180;0.668460;0.666212;0.668386;0.673680;0.667907;0.670095;0.672645;0.679840;0.677278;0.686443;0.680945;0.687078;0.685693;0.688024;0.692867;0.692469;0.691728;0.700931;0.699981;0.701644;0.700315;0.702442;0.709569;0.706867;0.709290;0.708485;0.713199;0.712506;0.713021;0.716250;0.716688;0.716993;0.715784;0.720564;0.717546;0.720135;0.717114;0.714723;0.713620;0.717188;0.713111;0.715616;0.716593;0.715611;0.707706;0.712763;0.713572;0.713156;0.709257;0.709223;0.701392;0.698685;0.703139;0.695014;0.692837;0.696009;0.696654;0.693189;0.686366;0.685150;0.683819;0.680680;0.680178;0.673147;0.673025;0.673844;0.666372;0.667223;0.657600;0.659027;0.656676;0.651829;0.649458;0.642192;0.637888;0.638973;0.634439;0.631691;0.630730;0.627482;0.621331;0.617699;0.616456;0.614384;0.607850;0.607858;0.603024;0.596229;0.593168;0.591680;0.584347;0.578508;0.576900;0.573947;0.575162;0.571612;0.564023;0.558861;0.563567;0.559415;0.558517;0.552026;0.548391;0.545085;0.541460;0.539241;0.540282;0.536679;0.536264;0.535399;0.525840;0.526159
0.597331;0.602278;0.608263;0.611227;0.620918;0.624246;0.637127;0.643876;0.649634;0.661735;0.672002;0.678974;0.685008;0.693677;0.702300;0.710230;0.717030;0.726735;0.739557;0.746919;0.754470;0.758737;0.772508;0.777211;0.786778;0.792902;0.799488;0.808851;0.820002;0.825721;0.837064;0.833152;0.841542;0.851230;0.847708;0.851532;0.862401;0.856976;0.864477;0.866457;0.867213;0.875076;0.871608;0.872710;0.873371;0.873120;0.877789;0.870604;0.866600;0.864857;0.862126;0.857508;0.862206;0.855221;0.849289;0.844882;0.845644;0.841143;0.834573;0.830877;0.823584;0.816539;0.812405;0.805635;0.800136;0.790703;0.782940;0.780945;0.775229;0.768904;0.764074;0.753948;0.751038;0.745032;0.739592;0.731865;0.725944;0.715139;0.713236;0.707402;0.700917;0.697108;0.691542;0.688101;0.684032;0.675848;0.672576;0.665428;0.662056;0.655410;0.651905;0.647482;0.639568;0.642081;0.635612;0.627634;0.628526;0.626064;0.624201;0.612086;0.611275;0.611073;0.608101;0.597913;0.602177;0.598097;0.593879;0.588308;0.586424;0.590618;0.582029;0.581860;0.581511;0.580426;0.580059;0.572200;0.572138;0.574165;0.566890;0.562156;0.563116;0.563718;0.562692;0.562868;0.561373;0.558999;0.556982;0.558758;0.554848;0.554418;0.555875;0.554752;0.554716;0.553629;0.553334;0.551232;0.550100;0.545635;0.546759;0.553733;0.548354;0.550025;0.548266;0.545346;0.546445;0.547075;0.549661;0.543277;0.549830;0.543409;0.544653;0.542258;0.544517;0.541841;0.541350;0.538434;0.540021;0.539113;0.539328;0.539563;0.537327;0.538997;0.536709;0.533182;0.536082;0.534095;0.537166;0.533611;0.539235;0.534984;0.531390;0.532899;0.527794;0.528624;0.526454;0.528101;0.523910;0.525884;0.524273;0.527371;0.526194;0.518936;0.522620;0.520258;0.515909;0.519446;0.521501;0.518831;0.517511;0.516996;0.514688;0.517628;0.514421;0.508579;0.513078;0.505023;0.509751;0.515010;0.511879;0.510577
0.522663;0.520222;0.523784;0.529506;0.527579;0.533954;0.538994;0.535903;0.534535;0.541515;0.543319;0.546037;0.549365;0.550890;0.551504;0.556283;0.556513;0.559321;0.564519;0.573700;0.569009;0.577499;0.581901;0.587480;0.587356;0.596653;0.599911;0.602033;0.610317;0.617248;0.620047;0.624206;0.631346;0.638362;0.645268;0.649289;0.656517;0.659217;0.664346;0.676254;0.678587;0.689305;0.697265;0.707918;0.712007;0.720662;0.734104;0.739952;0.748212;0.752981;0.765995;0.770953;0.783843;0.792104;0.797828;0.808252;0.816905;0.825261;0.837472;0.844415;0.851712;0.858097;0.866603;0.872770;0.881625;0.889636;0.895626;0.899583;0.908218;0.914035;0.915858;0.917956;0.925791;0.929647;0.926680;0.934904;0.933136;0.939460;0.937299;0.935399;0.933098;0.930673;0.929109;0.930052;0.924535;0.922511;0.919241;0.912148;0.902394;0.895240;0.897303;0.888667;0.874451;0.873833;0.861597;0.853094;0.848469;0.834944;0.829089;0.818845;0.809211;0.797385;0.793402;0.774136;0.767999;0.763681;0.747812;0.736240;0.731846;0.717994;0.711247;0.700037;0.694306;0.687961;0.675460;0.668265;0.659311;0.649780;0.644444;0.633233;0.629061;0.620825;0.613030;0.611285;0.604025;0.595068;0.588739;0.585103;0.582305;0.578729;0.569024;0.568358;0.563317;0.566907;0.554496;0.559010;0.554247;0.552271;0.547555;0.547089;0.540604;0.536540;0.539234;0.531001;0.539096;0.533192;0.532021;0.530645;0.534327;0.528508;0.529398;0.527086;0.525752;0.526599;0.528073;0.523573;0.522368;0.525790;0.521562;0.520328;0.524525;0.519465;0.519434;0.519251;0.524417;0.519958;0.515286;0.517591;0.517910;0.522384;0.516330;0.520601;0.520112;0.518639;0.519101;0.514390;0.513523;0.513367;0.516038;0.522427;0.518598;0.514900;0.510349;0.515377;0.512612;0.512929;0.513070;0.514712;0.515071;0.512043;0.509053;0.509226;0.509544;0.508735;0.509520;0.509367;0.505271;0.510336;0.509232;0.505609
0.552254;0.554881;0.556454;0.561773;0.564729;0.570338;0.574780;0.579275;0.582536;0.583111;0.593859;0.595677;0.604201;0.611981;0.612852;0.613632;0.619850;0.629199;0.633009;0.639092;0.648803;0.646624;0.647472;0.654118;0.657133;0.666125;0.666713;0.671812;0.675562;0.681391;0.685195;0.692739;0.693377;0.697244;0.699149;0.700080;0.704193;0.707034;0.710140;0.709100;0.711573;0.720739;0.718745;0.721656;0.720875;0.724764;0.720417;0.725433;0.722531;0.718733;0.720987;0.719729;0.724629;0.725626;0.719602;0.723652;0.717800;0.717580;0.719896;0.721803;0.715016;0.708657;0.710123;0.709756;0.710276;0.707977;0.707426;0.705959;0.701766;0.702329;0.700658;0.696381;0.695244;0.694796;0.698317;0.689138;0.690173;0.691786;0.687211;0.687216;0.685478;0.688255;0.683975;0.687565;0.681289;0.679655;0.680916;0.677843;0.676372;0.678770;0.676061;0.677034;0.677562;0.674621;0.674202;0.669896;0.674973;0.673105;0.675181;0.675313;0.676314;0.673182;0.674401;0.675519;0.673882;0.672819;0.677703;0.676664;0.674905;0.675541;0.669805;0.672315;0.674474;0.669982;0.673250;0.676247;0.675894;0.679647;0.674307;0.670426;0.676856;0.674792;0.674164;0.665878;0.670830;0.668399;0.670220;0.672023;0.668098;0.668768;0.666190;0.659216;0.668464;0.662393;0.658574;0.658019;0.662725;0.658778;0.657318;0.658868;0.658012;0.658935;0.655031;0.649842;0.650401;0.648100;0.646105;0.648251;0.648595;0.640368;0.639870;0.641959;0.635460;0.639041;0.637828;0.636552;0.630557;0.634253;0.625919;0.623857;0.622263;0.616759;0.617411;0.615447;0.609286;0.609904;0.607328;0.602805;0.603242;0.600866;0.597260;0.595451;0.587261;0.589565;0.583515;0.580539;0.585216;0.575886;0.574709;0.572029;0.569108;0.564868;0.566145;0.568331;0.556752;0.554789;0.555001;0.547738;0.546730;0.544559;0.542587;0.540904;0.536903;0.540928;0.532168;0.530905;0.524730;0.525744;0.525703;0.524643
0.504191;0.507658;0.505860;0.503317;0.504747;0.504661;0.502048;0.501467;0.506423;0.505507;0.506481;0.503293;0.509132;0.507278;0.509937;0.503919;0.511256;0.503280;0.513330;0.512337;0.515289;0.507242;0.514832;0.517209;0.516996;0.518511;0.517184;0.523155;0.524110;0.519260;0.524165;0.525747;0.529995;0.528321;0.533874;0.529134;0.529875;0.534704;0.531545;0.537052;0.540544;0.542377;0.547796;0.547143;0.550536;0.546090;0.555753;0.554338;0.560124;0.561901;0.564243;0.569499;0.572486;0.576486;0.580301;0.583458;0.585861;0.588331;0.591076;0.596978;0.598596;0.606622;0.608319;0.615728;0.612371;0.618826;0.624880;0.626397;0.631787;0.633865;0.641782;0.649253;0.650831;0.655484;0.656337;0.666960;0.674658;0.674414;0.679652;0.685156;0.689919;0.691808;0.701811;0.708945;0.711809;0.717111;0.717925;0.724696;0.734664;0.741412;0.743235;0.752277;0.754139;0.761310;0.764874;0.773594;0.773630;0.786438;0.786903;0.790730;0.798529;0.802908;0.810411;0.816460;0.815068;0.824127;0.828128;0.831381;0.832001;0.831020;0.836904;0.842695;0.840053;0.851769;0.846279;0.846617;0.849029;0.846598;0.850069;0.849310;0.849576;0.842409;0.846020;0.845688;0.842139;0.837620;0.841671;0.832557;0.836469;0.830648;0.826124;0.820043;0.815882;0.814908;0.806260;0.803332;0.797489;0.796981;0.788153;0.782474;0.777819;0.773083;0.761043;0.760250;0.757730;0.751060;0.741877;0.737578;0.729050;0.724974;0.718665;0.714355;0.707004;0.699654;0.695628;0.687317;0.680630;0.672589;0.667833;0.664182;0.660632;0.654104;0.647651;0.641936;0.640446;0.641701;0.630710;0.622681;0.619621;0.614117;0.615172;0.607056;0.601249;0.598764;0.590118;0.594678;0.580023;0.585097;0.578420;0.575352;0.570086;0.564515;0.563174;0.560042;0.559132;0.551973;0.549174;0.548919;0.548406;0.543010;0.542876;0.536613;0.533622;0.535373;0.529251;0.526504;0.526034;0.523024;0.520589;0.521853
0.542630;0.546568;0.555312;0.554760;0.559225;0.562764;0.565543;0.565317;0.569872;0.574570;0.575900;0.585074;0.588235;0.588822;0.595710;0.597872;0.603999;0.611397;0.611997;0.613673;0.620101;0.627241;0.627752;0.633028;0.637596;0.642495;0.644436;0.642491;0.651765;0.654557;0.654506;0.656922;0.667488;0.665358;0.669066;0.675714;0.673774;0.680467;0.680787;0.678261;0.680509;0.684069;0.687967;0.683911;0.681313;0.682313;0.689007;0.687680;0.687085;0.684869;0.683683;0.676988;0.686682;0.685288;0.684097;0.682082;0.682127;0.682551;0.681912;0.681502;0.682694;0.677240;0.675780;0.675765;0.671431;0.673780;0.672477;0.669733;0.671544;0.670497;0.669333;0.670424;0.669947;0.669052;0.668879;0.668819;0.668972;0.667775;0.669954;0.673985;0.667551;0.672902;0.673133;0.677462;0.674555;0.679529;0.681070;0.680468;0.681412;0.687907;0.686036;0.687030;0.688999;0.695453;0.692668;0.694101;0.700933;0.698787;0.702357;0.709876;0.709123;0.710985;0.718855;0.719940;0.722785;0.718728;0.722115;0.721363;0.727502;0.731289;0.729885;0.736890;0.734325;0.741853;0.735466;0.738043;0.740691;0.742208;0.741431;0.739122;0.742961;0.742717;0.739461;0.740686;0.738428;0.734783;0.732876;0.731490;0.728930;0.729682;0.727725;0.725542;0.723339;0.719433;0.717464;0.715216;0.708466;0.706712;0.696309;0.699753;0.695423;0.686774;0.683989;0.688439;0.676901;0.675287;0.673427;0.667744;0.665444;0.660830;0.656789;0.654360;0.648629;0.644511;0.641204;0.632011;0.638991;0.631502;0.627347;0.624845;0.622313;0.611292;0.612025;0.607452;0.604788;0.602717;0.595620;0.594715;0.592150;0.590057;0.580598;0.587799;0.580676;0.574837;0.570325;0.567410;0.568873;0.565288;0.562959;0.555622;0.554025;0.557034;0.551468;0.548603;0.546700;0.542635;0.540861;0.534580;0.535780;0.531181;0.529318;0.531815;0.529915;0.523656;0.525435;0.523075;0.519017;0.521965;0.517961;0.518776
0.514733;0.517540;0.517108;0.523779;0.519053;0.520150;0.521914;0.522468;0.524026;0.527406;0.523352;0.534160;0.532933;0.530037;0.531886;0.534519;0.536226;0.535730;0.536789;0.539801;0.540864;0.540875;0.546006;0.545794;0.546870;0.544861;0.543836;0.551500;0.546993;0.558035;0.554332;0.554576;0.551397;0.558733;0.561555;0.559454;0.552980;0.560924;0.554184;0.560931;0.564605;0.561941;0.562580;0.565070;0.562565;0.562710;0.564123;0.565059;0.561737;0.565409;0.561522;0.567230;0.567891;0.569449;0.562570;0.569253;0.569191;0.568207;0.567199;0.568525;0.570166;0.572461;0.576707;0.573761;0.572777;0.577837;0.578126;0.575844;0.582629;0.581603;0.585064;0.590189;0.587266;0.593733;0.594290;0.598144;0.599655;0.602398;0.607617;0.606802;0.613307;0.616257;0.624688;0.630387;0.630144;0.637657;0.644646;0.648408;0.647788;0.658318;0.660624;0.666729;0.674230;0.677167;0.679358;0.691285;0.693844;0.702462;0.710725;0.711019;0.722800;0.727917;0.733316;0.738178;0.746350;0.751251;0.759750;0.767349;0.764575;0.773868;0.777923;0.784561;0.788522;0.788699;0.796228;0.798510;0.806504;0.808139;0.808485;0.812333;0.820724;0.820150;0.814897;0.819219;0.819456;0.820108;0.820679;0.820402;0.821285;0.821881;0.817747;0.821042;0.819724;0.813821;0.813073;0.812213;0.808837;0.807689;0.803523;0.805302;0.798755;0.799893;0.797433;0.789954;0.791898;0.787374;0.784089;0.775403;0.774499;0.769788;0.767892;0.762559;0.759228;0.755432;0.748275;0.743635;0.740279;0.730186;0.733725;0.724000;0.721156;0.717037;0.713073;0.706506;0.700670;0.696095;0.691096;0.684935;0.681056;0.675197;0.678151;0.662341;0.660672;0.660853;0.650196;0.644698;0.638435;0.633954;0.633450;0.626176;0.620594;0.611522;0.608354;0.607151;0.602475;0.594356;0.591905;0.586506;0.579828;0.575582;0.567994;0.568899;0.561710;0.561549;0.557857;0.552427;0.555349;0.546191;0.544706;0.540249
0.525161;0.529207;0.529335;0.532009;0.531541;0.538588;0.537359;0.535508;0.542274;0.541928;0.540265;0.546783;0.552208;0.553737;0.556946;0.559672;0.560319;0.567721;0.562814;0.570037;0.572044;0.576044;0.574823;0.581243;0.582191;0.581515;0.588291;0.591051;0.590280;0.593722;0.591938;0.595646;0.608319;0.603453;0.601303;0.602089;0.610744;0.605022;0.611585;0.610510;0.614646;0.614895;0.617107;0.617137;0.616179;0.617864;0.623443;0.628508;0.621486;0.626941;0.630966;0.629796;0.625220;0.629394;0.631060;0.628142;0.634050;0.633287;0.632485;0.635078;0.636489;0.641998;0.636807;0.640285;0.638464;0.642302;0.645746;0.643573;0.647446;0.649515;0.651192;0.658730;0.655301;0.662482;0.662924;0.670569;0.668615;0.668609;0.678249;0.679200;0.684161;0.689227;0.692423;0.690938;0.705225;0.705926;0.705587;0.712298;0.721906;0.727201;0.732529;0.739186;0.742521;0.748506;0.752387;0.763643;0.763643;0.766966;0.779014;0.784821;0.785135;0.793777;0.799772;0.801276;0.806113;0.814825;0.812282;0.819236;0.826129;0.822680;0.826075;0.832679;0.832085;0.834110;0.831200;0.840335;0.833729;0.841459;0.833035;0.837104;0.838631;0.834402;0.830353;0.833168;0.830482;0.825853;0.819265;0.816746;0.811121;0.808142;0.801531;0.794175;0.788351;0.787818;0.779311;0.777858;0.767624;0.758484;0.761357;0.747458;0.736915;0.731669;0.725335;0.720396;0.709716;0.698459;0.697632;0.688597;0.682705;0.675706;0.668936;0.661266;0.657708;0.647800;0.638023;0.628547;0.627167;0.622677;0.614374;0.607796;0.600252;0.593255;0.588398;0.586300;0.584729;0.579502;0.575718;0.564044;0.562047;0.561018;0.559173;0.553359;0.547706;0.550149;0.544066;0.542692;0.540677;0.537240;0.531679;0.533569;0.524648;0.526225;0.522950;0.521412;0.522087;0.520244;0.515394;0.516732;0.514762;0.513648;0.513833;0.509476;0.506570;0.505134;0.509461;0.506315;0.506760;0.506483;0.504625;0.498800
0.549988;0.552302;0.551255;0.557352;0.558339;0.561796;0.561495;0.570716;0.575450;0.579610;0.586118;0.590133;0.590404;0.592808;0.598470;0.603612;0.609166;0.610670;0.618607;0.626102;0.629752;0.635546;0.636232;0.644346;0.646335;0.652052;0.653981;0.654539;0.662382;0.665799;0.670504;0.667763;0.679223;0.679945;0.683799;0.683483;0.684294;0.687062;0.691090;0.688855;0.695067;0.697804;0.700368;0.701859;0.698571;0.704548;0.703662;0.698338;0.701848;0.700789;0.701564;0.704589;0.704813;0.700663;0.704313;0.701715;0.694683;0.699219;0.700842;0.694701;0.696968;0.689922;0.690896;0.690742;0.683710;0.686836;0.685141;0.682799;0.676323;0.677455;0.671795;0.673474;0.668244;0.667075;0.669131;0.662720;0.661389;0.657964;0.657772;0.656796;0.652771;0.650246;0.649137;0.644714;0.645238;0.645556;0.642598;0.640187;0.635691;0.633238;0.633059;0.633552;0.623384;0.625217;0.624903;0.615325;0.615749;0.618387;0.617554;0.615195;0.615644;0.616437;0.608979;0.608938;0.610800;0.612672;0.606459;0.608254;0.605221;0.608834;0.612285;0.606113;0.611903;0.604639;0.606470;0.604904;0.611689;0.613629;0.612614;0.616651;0.615107;0.622987;0.618349;0.624326;0.625740;0.627770;0.630350;0.628112;0.640583;0.642778;0.643876;0.647262;0.652944;0.654976;0.663263;0.664573;0.666921;0.670814;0.675331;0.681606;0.680447;0.684261;0.690490;0.690043;0.695759;0.697603;0.703836;0.701454;0.708045;0.706782;0.712585;0.716261;0.717456;0.711679;0.720565;0.713125;0.725110;0.717439;0.726037;0.723247;0.719725;0.716329;0.716816;0.717632;0.712759;0.712771;0.707397;0.706210;0.701517;0.702110;0.698199;0.696697;0.690697;0.686635;0.680321;0.673152;0.669609;0.665070;0.662280;0.656888;0.647346;0.644665;0.642772;0.634798;0.629119;0.625630;0.622440;0.617682;0.609621;0.608665;0.597564;0.596039;0.587451;0.588973;0.581445;0.573809;0.572153;0.568641;0.563384;0.563866
0.560355;0.566386;0.570955;0.574143;0.578464;0.583446;0.584360;0.593597;0.596934;0.603147;0.608457;0.609464;0.619577;0.625403;0.625818;0.633660;0.639612;0.644719;0.652731;0.659997;0.663490;0.670499;0.680398;0.679758;0.694560;0.695877;0.700700;0.706579;0.711560;0.717276;0.720416;0.728468;0.736821;0.737543;0.747741;0.750513;0.754884;0.762445;0.765039;0.767649;0.772610;0.777285;0.786369;0.789155;0.791634;0.794487;0.797502;0.799843;0.801142;0.805418;0.802104;0.809470;0.813076;0.809301;0.813008;0.814981;0.817230;0.813041;0.821455;0.820081;0.821397;0.820607;0.824504;0.820210;0.820876;0.823774;0.823044;0.821759;0.818254;0.817708;0.817340;0.813624;0.811675;0.813116;0.811865;0.807881;0.806349;0.803475;0.794754;0.798472;0.791321;0.791014;0.791088;0.781524;0.781699;0.773369;0.767440;0.766889;0.764807;0.759358;0.749814;0.746773;0.741199;0.738446;0.730209;0.724072;0.717871;0.713046;0.707268;0.701831;0.692685;0.688406;0.681868;0.677637;0.670541;0.667734;0.662029;0.655744;0.649972;0.640089;0.640618;0.635732;0.633561;0.620149;0.623389;0.613241;0.606777;0.604198;0.602559;0.602540;0.593593;0.593605;0.588764;0.585581;0.581109;0.578810;0.581114;0.577215;0.571085;0.569579;0.566875;0.570074;0.563863;0.566591;0.562658;0.556707;0.559367;0.560211;0.554979;0.552681;0.555478;0.551399;0.554279;0.552575;0.554128;0.554697;0.547743;0.550234;0.546622;0.550994;0.550350;0.547383;0.544734;0.548113;0.541395;0.546152;0.542439;0.543401;0.546652;0.540217;0.540343;0.539007;0.538382;0.541317;0.539011;0.540074;0.538378;0.534308;0.538716;0.533405;0.534716;0.533544;0.534641;0.529959;0.529794;0.532994;0.530868;0.527841;0.527006;0.528984;0.522571;0.523006;0.524272;0.520976;0.517746;0.521149;0.518078;0.520238;0.512891;0.514905;0.519233;0.513680;0.516299;0.517926;0.516118;0.512964;0.512804;0.510736;0.506380;0.508311
0.515865;0.523386;0.523990;0.525120;0.524586;0.524398;0.528778;0.529104;0.535662;0.537884;0.539650;0.536888;0.542533;0.548624;0.545080;0.548925;0.547071;0.558370;0.557062;0.561865;0.566728;0.571880;0.571077;0.577550;0.579616;0.580649;0.586780;0.588835;0.594307;0.599320;0.606778;0.611612;0.614833;0.620406;0.628297;0.627029;0.631859;0.639933;0.648861;0.646638;0.656985;0.662650;0.668661;0.679509;0.680258;0.683072;0.696404;0.703841;0.708519;0.717071;0.728551;0.728137;0.737286;0.746074;0.750175;0.757943;0.764538;0.770101;0.781470;0.782001;0.791629;0.801042;0.806330;0.811100;0.815529;0.817666;0.826417;0.830160;0.831296;0.839444;0.844171;0.846764;0.847255;0.849437;0.854894;0.852145;0.854636;0.859576;0.853736;0.852610;0.856066;0.853446;0.852454;0.850960;0.849467;0.847021;0.842250;0.835789;0.830330;0.829721;0.822718;0.818318;0.813874;0.807254;0.795350;0.793691;0.789735;0.781600;0.769498;0.761425;0.756848;0.750695;0.740476;0.736870;0.726998;0.717655;0.717121;0.704498;0.700663;0.690866;0.692482;0.679280;0.669708;0.664274;0.662570;0.654119;0.648422;0.645205;0.637854;0.632980;0.628813;0.625222;0.616526;0.615779;0.616512;0.612915;0.609723;0.608425;0.607398;0.606889;0.602596;0.601464;0.602262;0.603602;0.597725;0.597201;0.600789;0.596755;0.596394;0.599197;0.599225;0.595886;0.600284;0.597026;0.600453;0.599205;0.601906;0.599234;0.602079;0.598485;0.601849;0.603797;0.605440;0.602231;0.604847;0.605803;0.602083;0.604819;0.602518;0.602756;0.604214;0.606205;0.602647;0.603049;0.601586;0.599777;0.597291;0.595373;0.590631;0.594010;0.593029;0.590956;0.589010;0.583526;0.586054;0.584563;0.580729;0.576884;0.575836;0.572449;0.570536;0.570943;0.569886;0.565973;0.558273;0.561816;0.557797;0.557844;0.550418;0.548093;0.548846;0.544377;0.543515;0.542819;0.537426;0.540633;0.533367;0.535485;0.527960;0.526245
0.506444;0.513405;0.510614;0.513690;0.514872;0.518470;0.513510;0.513242;0.518738;0.517277;0.522992;0.520389;0.517986;0.523238;0.523026;0.526075;0.527405;0.525896;0.530405;0.530551;0.532648;0.536587;0.538222;0.535585;0.542546;0.540856;0.544295;0.546144;0.547924;0.549157;0.556127;0.551518;0.556710;0.561667;0.556320;0.564334;0.566386;0.569467;0.572259;0.572218;0.576590;0.579270;0.581461;0.584058;0.586305;0.588319;0.593873;0.596116;0.601285;0.603133;0.609234;0.610567;0.614940;0.623870;0.620089;0.629232;0.628126;0.635773;0.639402;0.641194;0.647201;0.654434;0.655837;0.657328;0.668734;0.668905;0.671586;0.674176;0.683842;0.685478;0.685980;0.694154;0.701998;0.701754;0.709661;0.714919;0.721418;0.723976;0.727525;0.734409;0.738801;0.743376;0.748808;0.750030;0.757125;0.761863;0.766971;0.768690;0.776357;0.780105;0.785297;0.790534;0.790072;0.795354;0.802585;0.807513;0.812190;0.815617;0.811319;0.821386;0.827962;0.831642;0.834163;0.837166;0.833704;0.839998;0.842803;0.841970;0.844896;0.848313;0.852084;0.846757;0.851826;0.850542;0.852531;0.854352;0.853745;0.850673;0.848390;0.847714;0.845706;0.838748;0.839398;0.835816;0.835437;0.827115;0.823793;0.821397;0.815413;0.809947;0.804787;0.797471;0.794852;0.788413;0.781366;0.769225;0.768486;0.758646;0.753683;0.750518;0.739958;0.732168;0.723177;0.717754;0.709450;0.703053;0.698424;0.686521;0.690115;0.677364;0.670629;0.663022;0.655010;0.649246;0.640506;0.634324;0.629629;0.622008;0.613678;0.610021;0.607245;0.599868;0.601640;0.591155;0.592601;0.583580;0.577603;0.574297;0.572850;0.570332;0.565379;0.561122;0.557499;0.555319;0.552691;0.551233;0.546101;0.541396;0.542649;0.537252;0.537332;0.533548;0.531094;0.528764;0.529645;0.525318;0.523674;0.526272;0.522885;0.514859;0.524574;0.521261;0.517284;0.517972;0.513286;0.519348;0.518837;0.516365;0.512738;0.517061
0.543487;0.549565;0.549607;0.553267;0.556348;0.559786;0.565394;0.566353;0.563074;0.573658;0.577328;0.580272;0.585080;0.588724;0.598301;0.597353;0.598647;0.606355;0.611635;0.613003;0.615318;0.622029;0.627556;0.630142;0.632698;0.640023;0.644367;0.647396;0.653444;0.653602;0.656305;0.666410;0.665395;0.671432;0.670444;0.674324;0.678043;0.683250;0.682228;0.686055;0.688168;0.685716;0.692532;0.692768;0.696349;0.696032;0.698767;0.694890;0.699979;0.703077;0.704402;0.707612;0.703042;0.704361;0.702244;0.707137;0.706666;0.704117;0.708346;0.703044;0.708253;0.706948;0.708872;0.705400;0.708859;0.705527;0.706112;0.708174;0.704770;0.706347;0.700502;0.703122;0.704650;0.710175;0.702349;0.707896;0.701695;0.702091;0.705479;0.708542;0.703078;0.706298;0.704304;0.706647;0.704681;0.705101;0.709063;0.704435;0.708176;0.708634;0.706872;0.711217;0.705424;0.706623;0.704121;0.710567;0.710871;0.709198;0.709482;0.713320;0.710933;0.711256;0.715541;0.711738;0.712366;0.714004;0.712082;0.713779;0.714666;0.714044;0.715509;0.713467;0.715042;0.712647;0.711572;0.714043;0.711831;0.709064;0.704967;0.709523;0.706154;0.705893;0.703862;0.700539;0.700104;0.697378;0.699862;0.694338;0.695669;0.694614;0.690920;0.688821;0.685448;0.687190;0.682112;0.682527;0.677758;0.675216;0.668317;0.674962;0.665198;0.667537;0.660378;0.656455;0.653981;0.649328;0.654301;0.647972;0.645088;0.640287;0.638121;0.636526;0.637158;0.630291;0.626486;0.628124;0.622077;0.617848;0.618394;0.613751;0.608362;0.605260;0.604113;0.600440;0.598934;0.591896;0.590572;0.585125;0.586507;0.579678;0.579783;0.577442;0.577409;0.569293;0.565996;0.568061;0.565464;0.561938;0.556323;0.553661;0.558577;0.551378;0.550702;0.544019;0.546807;0.543545;0.539763;0.539491;0.534839;0.531899;0.532928;0.530875;0.526007;0.525481;0.522152;0.522630;0.520496;0.522357;0.514568;0.516546
0.525645;0.528608;0.532139;0.529234;0.530443;0.536783;0.539061;0.544842;0.549403;0.549064;0.549369;0.549974;0.553565;0.554197;0.563103;0.563472;0.570869;0.571976;0.576587;0.577357;0.580533;0.582386;0.586302;0.585810;0.591755;0.593335;0.594876;0.602963;0.605180;0.612057;0.616084;0.618112;0.620391;0.622000;0.624855;0.626813;0.631097;0.634287;0.635528;0.641128;0.640370;0.648228;0.651070;0.653314;0.657342;0.662657;0.659316;0.660325;0.670663;0.669585;0.670017;0.674274;0.678849;0.685275;0.685977;0.688409;0.684897;0.690608;0.696648;0.697661;0.699412;0.703162;0.707612;0.705294;0.712921;0.711994;0.721051;0.719301;0.719612;0.718205;0.725612;0.727311;0.731751;0.734653;0.736005;0.735130;0.739752;0.742438;0.745698;0.744751;0.749216;0.758508;0.755004;0.760500;0.762103;0.761076;0.766482;0.760429;0.770243;0.772224;0.771667;0.771391;0.775383;0.776468;0.776633;0.777348;0.773013;0.779350;0.780219;0.781187;0.780287;0.773943;0.781499;0.786546;0.787215;0.784828;0.784574;0.783540;0.787882;0.782132;0.780252;0.786455;0.780164;0.780654;0.786061;0.778203;0.774134;0.774148;0.773573;0.771768;0.767909;0.762808;0.766096;0.763802;0.759835;0.754826;0.749155;0.749580;0.742140;0.737867;0.731973;0.731577;0.724286;0.719637;0.709412;0.708640;0.704550;0.700964;0.693474;0.689285;0.684414;0.678986;0.674895;0.669911;0.667113;0.659811;0.649963;0.653249;0.648020;0.636406;0.635821;0.628004;0.625473;0.621436;0.617153;0.611544;0.608624;0.607002;0.602846;0.594795;0.593582;0.589464;0.586541;0.582840;0.576898;0.574722;0.570710;0.566034;0.564641;0.564799;0.560838;0.556670;0.555329;0.554556;0.552954;0.546292;0.547396;0.549461;0.543038;0.542726;0.538335;0.539200;0.534496;0.530634;0.532034;0.530262;0.528461;0.529145;0.527068;0.526518;0.525197;0.525207;0.517835;0.520746;0.520453;0.518797;0.514177;0.514217;0.514924;0.516917
0.563562;0.570154;0.569658;0.576258;0.580998;0.585276;0.593972;0.594155;0.603098;0.607119;0.611140;0.617306;0.626162;0.631758;0.637106;0.643650;0.648411;0.651467;0.657698;0.663510;0.672553;0.674890;0.684466;0.688019;0.693919;0.698941;0.702564;0.709742;0.711269;0.713819;0.720183;0.720907;0.724697;0.729058;0.732167;0.735798;0.739302;0.737918;0.740149;0.737135;0.743618;0.744799;0.740853;0.742589;0.747488;0.744688;0.742230;0.741553;0.742820;0.736409;0.731488;0.731165;0.729034;0.725769;0.718501;0.725864;0.714703;0.715626;0.714831;0.704938;0.707644;0.698301;0.699507;0.693558;0.692860;0.687741;0.684594;0.677308;0.677625;0.673809;0.669744;0.669618;0.670046;0.660739;0.662488;0.656200;0.660625;0.658218;0.656598;0.654894;0.653894;0.655378;0.654817;0.655423;0.651316;0.658760;0.652931;0.654657;0.657039;0.660067;0.662321;0.663515;0.664794;0.667922;0.668104;0.668081;0.673918;0.676345;0.678769;0.682997;0.679260;0.685392;0.692407;0.691677;0.692666;0.695561;0.698673;0.701870;0.698672;0.708323;0.711724;0.713182;0.711400;0.712743;0.711910;0.716482;0.715171;0.717830;0.715677;0.713527;0.715048;0.721163;0.715328;0.715858;0.714833;0.714526;0.712931;0.711659;0.711450;0.704686;0.704849;0.698786;0.696296;0.694166;0.693422;0.686494;0.687104;0.681324;0.682872;0.674331;0.671157;0.670373;0.662472;0.661610;0.656859;0.654367;0.649390;0.639055;0.641739;0.631212;0.629156;0.626485;0.619392;0.618915;0.615356;0.613350;0.607966;0.606819;0.594871;0.596574;0.594704;0.592793;0.590055;0.584095;0.581983;0.580631;0.577679;0.573560;0.568476;0.567983;0.564959;0.561169;0.557207;0.558081;0.557422;0.551970;0.546461;0.544540;0.543923;0.545091;0.542622;0.539429;0.541918;0.538262;0.531185;0.532143;0.534677;0.533072;0.530985;0.526506;0.528582;0.524121;0.525646;0.520040;0.521481;0.517485;0.517530;0.519090;0.518600;0.512790
0.569295;0.572541;0.573427;0.581211;0.585202;0.589795;0.593209;0.602285;0.608617;0.612285;0.621541;0.625782;0.632540;0.639668;0.644472;0.651054;0.657263;0.657119;0.669548;0.672981;0.682092;0.685931;0.691187;0.700795;0.705944;0.706445;0.710089;0.724306;0.720509;0.731921;0.736078;0.741224;0.740285;0.743456;0.747580;0.753069;0.757782;0.758354;0.756586;0.758571;0.762032;0.762602;0.764883;0.770572;0.767589;0.763535;0.767523;0.763277;0.763066;0.764790;0.762394;0.752317;0.753886;0.752709;0.750083;0.749818;0.747609;0.740653;0.733312;0.734535;0.729067;0.727386;0.720872;0.720005;0.716117;0.709680;0.709888;0.704102;0.701150;0.694142;0.693557;0.690832;0.680595;0.679497;0.675523;0.673834;0.674439;0.673796;0.664490;0.662627;0.661653;0.655686;0.659799;0.651708;0.649078;0.651515;0.644307;0.642044;0.643754;0.644237;0.642893;0.637301;0.633974;0.637546;0.633296;0.631325;0.632583;0.632980;0.632652;0.630928;0.628119;0.630822;0.626584;0.624262;0.625329;0.630506;0.627051;0.626440;0.626965;0.625797;0.627669;0.628359;0.626195;0.628405;0.627968;0.625531;0.629631;0.628670;0.624392;0.635355;0.626813;0.627485;0.628974;0.631669;0.633339;0.626313;0.627300;0.631127;0.630634;0.636073;0.629521;0.632721;0.632961;0.634415;0.633097;0.634208;0.633675;0.634023;0.635568;0.631728;0.630955;0.637690;0.633332;0.633558;0.633560;0.634021;0.637786;0.634600;0.629733;0.636418;0.637881;0.628484;0.632328;0.632278;0.626625;0.622955;0.626478;0.628857;0.625114;0.623554;0.620642;0.616626;0.613442;0.615632;0.616738;0.613733;0.606894;0.606706;0.610067;0.601107;0.600615;0.595316;0.595660;0.588670;0.587160;0.585470;0.581613;0.585399;0.576705;0.579076;0.568944;0.568893;0.565527;0.566357;0.559373;0.554704;0.559746;0.551350;0.546311;0.546515;0.540954;0.538692;0.539133;0.534554;0.536007;0.531758;0.533306;0.528867;0.523598;0.524710
0.507725;0.503665;0.509683;0.508480;0.511732;0.511478;0.510999;0.507366;0.510922;0.511340;0.511297;0.513380;0.512864;0.515831;0.516853;0.518291;0.515823;0.520634;0.514220;0.522070;0.526275;0.518973;0.526508;0.528639;0.525409;0.530343;0.526997;0.527787;0.527886;0.529992;0.532616;0.534726;0.534113;0.532772;0.541354;0.541378;0.537780;0.545694;0.541359;0.549346;0.544789;0.552713;0.549476;0.553957;0.553427;0.558100;0.558181;0.559606;0.559495;0.558401;0.563060;0.561247;0.568713;0.571940;0.572554;0.576617;0.577359;0.577996;0.580419;0.583119;0.584337;0.590463;0.597061;0.591915;0.597497;0.600305;0.601178;0.606978;0.612209;0.609828;0.612422;0.619189;0.620978;0.625754;0.631174;0.635226;0.634323;0.638508;0.646734;0.645682;0.645651;0.650024;0.659725;0.659198;0.666379;0.675327;0.678905;0.681338;0.688624;0.694603;0.694313;0.700806;0.703030;0.705151;0.711879;0.721071;0.721636;0.722856;0.731671;0.734746;0.740869;0.742689;0.749126;0.749356;0.756515;0.761943;0.765541;0.771366;0.769901;0.771365;0.777230;0.783675;0.784421;0.788851;0.792217;0.791209;0.799287;0.794689;0.799979;0.798203;0.806932;0.807983;0.801978;0.805251;0.806043;0.809801;0.809437;0.810085;0.809009;0.809766;0.812189;0.808860;0.806494;0.806750;0.808101;0.805055;0.804838;0.802571;0.800028;0.798322;0.800259;0.795994;0.792652;0.789129;0.786362;0.788466;0.780709;0.779375;0.777314;0.772970;0.770856;0.767540;0.765128;0.761804;0.754715;0.749351;0.750636;0.744758;0.739420;0.736656;0.734575;0.726788;0.723981;0.719316;0.710103;0.710849;0.706278;0.696525;0.697902;0.699975;0.690422;0.682331;0.676630;0.666838;0.667842;0.657054;0.652299;0.645823;0.644065;0.635491;0.629417;0.630554;0.621981;0.615494;0.609878;0.612033;0.608348;0.601752;0.594027;0.587385;0.586100;0.579615;0.580348;0.573610;0.569755;0.566549;0.560242;0.556039;0.555973;0.555272
0.508424;0.517043;0.515027;0.514454;0.515454;0.517372;0.521281;0.520444;0.525489;0.522007;0.521524;0.528564;0.529572;0.528130;0.530662;0.532057;0.534655;0.537959;0.541297;0.539549;0.545351;0.546453;0.545613;0.547654;0.556844;0.551958;0.557755;0.555262;0.566077;0.566806;0.572153;0.571228;0.575720;0.577725;0.579201;0.586720;0.592463;0.594469;0.600585;0.603033;0.610220;0.614152;0.621544;0.619511;0.629953;0.630142;0.635228;0.643225;0.643547;0.647296;0.655381;0.663108;0.664194;0.671704;0.677997;0.672780;0.688709;0.694400;0.698920;0.701270;0.706629;0.719180;0.718775;0.727210;0.727621;0.734009;0.737708;0.749396;0.747776;0.749021;0.753904;0.761261;0.758589;0.762380;0.765985;0.772562;0.778208;0.774904;0.777719;0.779559;0.782784;0.780418;0.784548;0.782654;0.780364;0.778961;0.779956;0.778752;0.782338;0.777363;0.777626;0.779808;0.779619;0.773829;0.770353;0.772448;0.768179;0.768357;0.758692;0.762812;0.759606;0.754587;0.757471;0.751269;0.747332;0.745905;0.738120;0.742574;0.738256;0.732575;0.730351;0.726079;0.720108;0.727727;0.721423;0.717922;0.712311;0.713105;0.710782;0.706831;0.705364;0.706496;0.701079;0.703158;0.695905;0.699190;0.698432;0.692788;0.691744;0.692552;0.690369;0.690943;0.689843;0.682609;0.686425;0.688085;0.686827;0.681457;0.679676;0.687502;0.682517;0.674577;0.678483;0.677003;0.674089;0.673683;0.673269;0.672575;0.676000;0.672953;0.669622;0.665943;0.666199;0.667255;0.663220;0.663595;0.660536;0.661185;0.661838;0.658301;0.652668;0.652450;0.649910;0.649858;0.644300;0.643229;0.642608;0.637305;0.636023;0.634839;0.631942;0.624874;0.621533;0.620149;0.615189;0.614448;0.609917;0.603132;0.606984;0.600017;0.593782;0.588942;0.589864;0.588209;0.584463;0.580436;0.577656;0.573692;0.575549;0.564521;0.564691;0.559442;0.551890;0.552702;0.550072;0.551573;0.548388;0.546828;0.546379;0.545887
0.575254;0.581256;0.585141;0.591145;0.600915;0.604101;0.610391;0.618163;0.620616;0.630322;0.636437;0.641560;0.653496;0.657288;0.661871;0.670685;0.673630;0.681079;0.689015;0.694409;0.703293;0.708721;0.712167;0.716930;0.725239;0.735181;0.739261;0.742170;0.749546;0.751814;0.761728;0.762374;0.769777;0.765905;0.773422;0.776917;0.777918;0.779921;0.779320;0.779633;0.782535;0.782293;0.781362;0.781725;0.780932;0.779428;0.779068;0.773913;0.773842;0.765830;0.767238;0.759459;0.757330;0.753982;0.744980;0.745841;0.738821;0.733388;0.727840;0.726863;0.719862;0.711639;0.708960;0.699586;0.701714;0.692246;0.689782;0.685230;0.680227;0.672914;0.670910;0.664884;0.657606;0.653551;0.651280;0.643960;0.644223;0.645243;0.639482;0.640690;0.636140;0.633929;0.633337;0.627932;0.629561;0.631581;0.625711;0.627006;0.627861;0.630865;0.627291;0.627408;0.631165;0.632425;0.627699;0.632542;0.631768;0.637336;0.639745;0.638845;0.642206;0.642845;0.644916;0.653382;0.648392;0.652807;0.653691;0.655614;0.657199;0.659257;0.661230;0.664215;0.662167;0.666376;0.666812;0.669482;0.668132;0.665472;0.668060;0.673152;0.670370;0.674100;0.668845;0.663728;0.668521;0.672442;0.662562;0.665767;0.669555;0.663407;0.664500;0.666109;0.652939;0.658834;0.650310;0.647749;0.650406;0.649926;0.643505;0.644746;0.640652;0.636778;0.630809;0.629591;0.625341;0.623935;0.616647;0.614235;0.612634;0.611191;0.607286;0.602571;0.595785;0.596505;0.592473;0.590601;0.584731;0.586801;0.579833;0.582995;0.578257;0.574852;0.569444;0.562467;0.566869;0.559956;0.563202;0.555543;0.556755;0.548376;0.550100;0.551755;0.543621;0.536746;0.538656;0.541343;0.534376;0.530485;0.537389;0.526563;0.528939;0.524979;0.529459;0.519005;0.516375;0.515224;0.513075;0.516569;0.509867;0.514629;0.509390;0.509008;0.510450;0.505642;0.505251;0.502110;0.503190;0.501788;0.501328;0.498756
0.500727;0.505548;0.506326;0.503184;0.507554;0.506056;0.503324;0.511082;0.511407;0.510402;0.507494;0.505950;0.511104;0.509753;0.517706;0.513882;0.518058;0.513306;0.517061;0.521287;0.524434;0.522422;0.527584;0.524428;0.526002;0.532151;0.533713;0.533789;0.536713;0.539593;0.543667;0.547114;0.547838;0.555050;0.552304;0.556624;0.557864;0.560567;0.568940;0.572099;0.571451;0.579089;0.581203;0.585104;0.594271;0.593423;0.599212;0.608378;0.614459;0.613396;0.622233;0.624286;0.631066;0.641491;0.644646;0.648755;0.657805;0.659642;0.670954;0.669905;0.676504;0.686243;0.685651;0.695293;0.698696;0.704207;0.712135;0.717716;0.721498;0.723711;0.726716;0.733724;0.733738;0.742550;0.743245;0.744106;0.755834;0.753979;0.751945;0.756863;0.761566;0.762458;0.768526;0.767456;0.765683;0.772327;0.766706;0.771323;0.773577;0.771925;0.770725;0.772630;0.770720;0.765825;0.765528;0.769160;0.770821;0.761672;0.764030;0.764273;0.763361;0.763456;0.759274;0.756509;0.749022;0.760573;0.752451;0.746159;0.752969;0.752232;0.748792;0.747266;0.741596;0.741466;0.737500;0.737979;0.736578;0.738306;0.731071;0.730848;0.727542;0.729774;0.728858;0.726146;0.728026;0.728667;0.720238;0.724275;0.723455;0.720327;0.716010;0.718233;0.715494;0.713496;0.716336;0.716446;0.721040;0.711397;0.715556;0.709350;0.711473;0.709311;0.703632;0.708282;0.708732;0.709924;0.705913;0.702655;0.698391;0.703707;0.698751;0.695084;0.701877;0.694735;0.697620;0.691227;0.691478;0.689780;0.685808;0.685779;0.685201;0.678444;0.673382;0.673343;0.672012;0.667038;0.660273;0.661072;0.661864;0.649379;0.648511;0.645516;0.643072;0.635549;0.637472;0.632634;0.624476;0.624026;0.620359;0.612568;0.612042;0.604291;0.604303;0.600606;0.595613;0.593244;0.592617;0.588238;0.587070;0.578578;0.577153;0.570354;0.565229;0.559674;0.557781;0.553850;0.549627;0.549501;0.546500;0.543683
0.609447;0.610817;0.619946;0.630468;0.638326;0.642344;0.655797;0.666749;0.675422;0.684752;0.688029;0.692963;0.705200;0.716982;0.728522;0.731518;0.746617;0.751197;0.763867;0.776958;0.783530;0.792400;0.800726;0.811119;0.817479;0.825912;0.832455;0.845335;0.847201;0.855466;0.867767;0.869144;0.875891;0.881582;0.886503;0.889373;0.891845;0.896144;0.904055;0.898382;0.902543;0.899335;0.903559;0.900221;0.902921;0.897360;0.898224;0.896409;0.892197;0.888139;0.887146;0.888455;0.878849;0.870632;0.864628;0.862453;0.851140;0.842446;0.841602;0.831293;0.827290;0.820459;0.810965;0.798194;0.798337;0.787132;0.778908;0.771791;0.764497;0.755126;0.745835;0.740055;0.739352;0.729434;0.720864;0.716342;0.710979;0.700734;0.698509;0.688121;0.684307;0.677665;0.669138;0.667389;0.659975;0.657813;0.648402;0.643436;0.641542;0.638952;0.630030;0.629234;0.628355;0.626614;0.619317;0.616952;0.612154;0.617332;0.608805;0.604738;0.602502;0.595157;0.600193;0.597320;0.598250;0.589016;0.589569;0.587295;0.586232;0.587563;0.584511;0.584348;0.579400;0.578219;0.579703;0.577381;0.575019;0.573679;0.574527;0.568645;0.564210;0.566337;0.570953;0.565482;0.568733;0.562862;0.559506;0.563548;0.559939;0.556953;0.559386;0.551951;0.549869;0.552811;0.548074;0.548566;0.546225;0.547767;0.544495;0.541980;0.542994;0.535394;0.536547;0.543398;0.538210;0.534413;0.534729;0.528987;0.532597;0.524865;0.529163;0.525057;0.525517;0.524699;0.522056;0.525457;0.522139;0.518423;0.517723;0.519052;0.512846;0.517695;0.512176;0.518069;0.516972;0.514514;0.511709;0.516665;0.511060;0.508330;0.507363;0.510019;0.510882;0.504993;0.507836;0.512399;0.509797;0.504724;0.508520;0.508565;0.507651;0.507262;0.503745;0.511028;0.504693;0.504297;0.503471;0.504108;0.506209;0.505009;0.505697;0.501894;0.503239;0.503902;0.507227;0.503392;0.500253;0.501834;0.498184;0.502256
0.552635;0.550621;0.559773;0.564858;0.561808;0.569156;0.576244;0.580175;0.584629;0.586409;0.593063;0.601716;0.603492;0.606769;0.612765;0.616736;0.617158;0.624437;0.634340;0.642545;0.644212;0.645844;0.650956;0.656863;0.666437;0.672066;0.672823;0.682099;0.686506;0.686735;0.695847;0.700073;0.703480;0.706993;0.714177;0.719378;0.721811;0.722931;0.731507;0.734812;0.737161;0.741111;0.744726;0.750100;0.745490;0.756596;0.756445;0.762443;0.760452;0.767485;0.765292;0.769272;0.770692;0.774235;0.772900;0.780374;0.775685;0.779548;0.780820;0.785499;0.782867;0.783385;0.784590;0.787314;0.785857;0.794173;0.792274;0.784024;0.789854;0.785444;0.787567;0.792416;0.789082;0.786298;0.787580;0.788028;0.784958;0.782105;0.782523;0.781698;0.776144;0.778182;0.777272;0.776349;0.775092;0.769571;0.768728;0.768485;0.758412;0.754522;0.756301;0.754141;0.754935;0.748832;0.747907;0.744209;0.742084;0.739095;0.733397;0.725923;0.724990;0.718955;0.719659;0.714690;0.707345;0.710042;0.709397;0.697156;0.697023;0.694725;0.687806;0.692136;0.678151;0.677723;0.679284;0.673326;0.667470;0.665258;0.659808;0.660072;0.658422;0.652744;0.648387;0.647876;0.640882;0.636684;0.634882;0.629145;0.629489;0.625466;0.620108;0.619223;0.616591;0.615029;0.608925;0.606448;0.602089;0.599516;0.598506;0.596051;0.587814;0.590777;0.582593;0.578120;0.583372;0.574800;0.576572;0.575000;0.573035;0.566518;0.565216;0.564762;0.566731;0.563277;0.553822;0.558682;0.555882;0.550867;0.550086;0.543528;0.546701;0.542128;0.542467;0.536421;0.539282;0.534639;0.533944;0.533459;0.532719;0.527744;0.530998;0.528718;0.523844;0.523652;0.529088;0.521298;0.522515;0.517854;0.521872;0.515616;0.514878;0.517748;0.512990;0.512183;0.518016;0.515840;0.512700;0.509924;0.514301;0.512118;0.509085;0.512184;0.509359;0.507131;0.508685;0.508389;0.504756;0.508265;0.506791;0.505062
0.541997;0.546317;0.553060;0.554632;0.557994;0.559778;0.559218;0.566948;0.572078;0.577486;0.582530;0.581203;0.584194;0.593109;0.597820;0.603644;0.606518;0.608949;0.610328;0.619884;0.618267;0.622276;0.624720;0.633188;0.642037;0.640592;0.644470;0.645344;0.654068;0.659441;0.660928;0.664076;0.668264;0.672400;0.671301;0.677845;0.678464;0.680681;0.681437;0.686651;0.686716;0.688183;0.696230;0.693415;0.696411;0.702565;0.694879;0.699660;0.700692;0.703987;0.702616;0.702201;0.704180;0.700491;0.698785;0.706886;0.695853;0.696074;0.698480;0.695753;0.697820;0.696698;0.697132;0.693934;0.691788;0.691953;0.691583;0.691749;0.690105;0.689019;0.683190;0.684868;0.680195;0.684370;0.678825;0.677655;0.677649;0.671275;0.671084;0.664756;0.668837;0.666904;0.668899;0.665566;0.658400;0.659411;0.658542;0.657309;0.653464;0.653044;0.651519;0.651255;0.647991;0.645165;0.641493;0.647398;0.644505;0.640688;0.640506;0.640186;0.639260;0.634471;0.638121;0.633108;0.631997;0.633755;0.632392;0.631809;0.632978;0.628888;0.630521;0.635280;0.632588;0.633096;0.631184;0.636638;0.634797;0.633820;0.634546;0.633074;0.636725;0.640228;0.642861;0.640420;0.642526;0.648025;0.648096;0.650165;0.646755;0.656059;0.658445;0.658779;0.657183;0.666086;0.669262;0.667325;0.675104;0.673551;0.678746;0.678260;0.683798;0.680743;0.685465;0.686983;0.689293;0.692668;0.694636;0.694005;0.696339;0.701754;0.702968;0.702425;0.699921;0.699927;0.703315;0.704088;0.702767;0.699120;0.703754;0.695353;0.699025;0.699469;0.691704;0.694035;0.692155;0.692410;0.686553;0.688132;0.683375;0.677648;0.670470;0.669805;0.669443;0.666532;0.660389;0.653882;0.647529;0.645490;0.646698;0.639420;0.635107;0.627302;0.623468;0.620900;0.617018;0.613587;0.604593;0.602486;0.600466;0.594017;0.586326;0.587796;0.580179;0.576107;0.573791;0.567258;0.565681;0.563237;0.556684;0.550648
0.513669;0.507172;0.509098;0.509023;0.513053;0.514534;0.513044;0.517743;0.517233;0.520742;0.524086;0.519331;0.519818;0.524419;0.521241;0.529963;0.526462;0.534280;0.534468;0.536521;0.538213;0.539609;0.543746;0.547299;0.543960;0.548002;0.554129;0.560168;0.555984;0.565037;0.563863;0.575443;0.580266;0.579285;0.579963;0.592417;0.600676;0.599530;0.604882;0.608765;0.618764;0.622114;0.624403;0.635964;0.636422;0.651118;0.653951;0.661353;0.669072;0.676316;0.681305;0.687567;0.700692;0.710014;0.711497;0.721376;0.727464;0.734181;0.746557;0.751248;0.759972;0.761480;0.771741;0.778524;0.785963;0.795963;0.802149;0.809784;0.814756;0.823394;0.825852;0.832980;0.835969;0.842128;0.846382;0.853121;0.856893;0.861136;0.857979;0.863037;0.867053;0.866360;0.872343;0.870640;0.872922;0.872654;0.872303;0.875671;0.871752;0.867507;0.867480;0.868393;0.865530;0.863399;0.860189;0.863394;0.855070;0.853477;0.849376;0.853696;0.847383;0.838314;0.833846;0.831174;0.825386;0.822593;0.813707;0.808040;0.809160;0.803806;0.799773;0.793284;0.791287;0.781868;0.776548;0.773388;0.769816;0.762786;0.753519;0.749492;0.745353;0.742052;0.734462;0.727490;0.722552;0.716952;0.707844;0.707736;0.699350;0.693279;0.687000;0.684459;0.677842;0.672290;0.664935;0.663121;0.658370;0.652016;0.646395;0.640600;0.637659;0.628966;0.623684;0.623134;0.611626;0.614116;0.603335;0.598489;0.596646;0.590482;0.589937;0.584492;0.579599;0.577993;0.570383;0.568470;0.564010;0.562700;0.557425;0.558073;0.553971;0.546927;0.550063;0.540768;0.540617;0.540555;0.536185;0.538590;0.532230;0.528806;0.524576;0.527816;0.531838;0.521400;0.521658;0.518968;0.519531;0.520258;0.523717;0.521623;0.513419;0.515847;0.514973;0.512303;0.509498;0.512069;0.511207;0.507221;0.511339;0.508730;0.506630;0.510135;0.508337;0.509209;0.507628;0.509440;0.507005;0.506567;0.506806;0.506050
0.543329;0.546496;0.544061;0.550598;0.552625;0.553222;0.559083;0.565281;0.570537;0.568841;0.571527;0.576798;0.584404;0.585996;0.588169;0.596997;0.590910;0.597655;0.601806;0.610155;0.608489;0.612850;0.615868;0.620150;0.627187;0.629907;0.634247;0.638079;0.636885;0.641942;0.644909;0.647580;0.652258;0.653941;0.660700;0.656423;0.662895;0.664329;0.661769;0.662038;0.670371;0.669875;0.670480;0.670185;0.671803;0.669779;0.671732;0.672716;0.673209;0.678669;0.675246;0.669961;0.673674;0.671738;0.672375;0.679387;0.668892;0.673736;0.671557;0.671806;0.667172;0.667986;0.671674;0.666368;0.672148;0.669757;0.667715;0.664972;0.669149;0.669071;0.668235;0.668602;0.661473;0.673038;0.671267;0.668899;0.672282;0.676479;0.672279;0.677530;0.675986;0.677458;0.679449;0.681582;0.680796;0.685750;0.686855;0.686940;0.690623;0.690582;0.703648;0.699271;0.707531;0.699533;0.713577;0.713872;0.714738;0.719075;0.719978;0.721973;0.730217;0.731754;0.732905;0.731214;0.740623;0.744757;0.746207;0.748776;0.749277;0.754899;0.754007;0.758211;0.759583;0.757286;0.760567;0.756574;0.761219;0.765945;0.763150;0.763282;0.762515;0.760518;0.759420;0.760834;0.756076;0.759154;0.753429;0.751403;0.751769;0.749896;0.744108;0.743134;0.740356;0.735923;0.733588;0.728683;0.724091;0.721920;0.718342;0.712498;0.709663;0.700902;0.697448;0.690709;0.685838;0.687044;0.679217;0.677279;0.673102;0.665556;0.659926;0.654978;0.654269;0.648015;0.639394;0.638373;0.634899;0.632390;0.620787;0.626738;0.621101;0.616391;0.609024;0.609269;0.603137;0.602127;0.598496;0.593138;0.589325;0.586846;0.579979;0.583713;0.576275;0.572848;0.569371;0.565995;0.567004;0.561162;0.560466;0.556889;0.550063;0.546418;0.552781;0.548058;0.545449;0.540861;0.540111;0.538650;0.531582;0.531183;0.530430;0.528900;0.530660;0.526408;0.526490;0.522857;0.518763;0.522139;0.522824;0.518449
0.503818;0.505836;0.502899;0.505289;0.506012;0.505467;0.507976;0.507414;0.506917;0.509360;0.504304;0.509649;0.510491;0.510950;0.513411;0.512354;0.519043;0.516301;0.514338;0.512369;0.521063;0.520861;0.524116;0.524136;0.526009;0.531254;0.530420;0.530756;0.533057;0.537227;0.539816;0.542357;0.546889;0.543545;0.552694;0.555237;0.557241;0.563953;0.567737;0.567301;0.576803;0.578599;0.588691;0.589053;0.594111;0.596999;0.603491;0.613070;0.618251;0.622465;0.624197;0.629998;0.638241;0.645208;0.648283;0.656327;0.664222;0.672241;0.677150;0.685954;0.690197;0.699784;0.702252;0.707952;0.713734;0.712916;0.726116;0.730600;0.736554;0.735825;0.751139;0.748835;0.755346;0.756838;0.764918;0.766555;0.768895;0.773437;0.774296;0.781138;0.783651;0.787000;0.786988;0.790115;0.788546;0.790594;0.788690;0.792289;0.794539;0.790251;0.792072;0.796357;0.791624;0.793612;0.791806;0.788323;0.789553;0.790669;0.786258;0.782792;0.784029;0.780537;0.782759;0.777056;0.773526;0.773981;0.770986;0.770799;0.769420;0.760448;0.762735;0.756362;0.755821;0.754693;0.752002;0.751637;0.747661;0.750751;0.742668;0.734519;0.735776;0.738862;0.738430;0.729903;0.726653;0.730495;0.725851;0.724356;0.720511;0.717931;0.714044;0.712337;0.712883;0.714681;0.702166;0.706182;0.706574;0.708432;0.705730;0.693369;0.700655;0.696631;0.694679;0.696229;0.689947;0.689959;0.688149;0.688078;0.683910;0.681159;0.676462;0.673939;0.669039;0.669877;0.664644;0.666837;0.665106;0.662510;0.659223;0.657234;0.653879;0.653349;0.650405;0.643394;0.638801;0.641634;0.639327;0.632493;0.625078;0.626421;0.623601;0.618503;0.618163;0.612976;0.604431;0.604725;0.601318;0.595878;0.595410;0.592858;0.588757;0.583274;0.577800;0.576982;0.574441;0.571085;0.569051;0.563354;0.564245;0.562776;0.556744;0.556564;0.549552;0.551368;0.547816;0.542767;0.541622;0.541445;0.539228;0.534835
0.504151;0.506337;0.503748;0.507476;0.511035;0.507986;0.508171;0.509824;0.512883;0.513533;0.515674;0.513505;0.518460;0.518068;0.520748;0.520014;0.521435;0.526683;0.526367;0.530234;0.527350;0.531459;0.534020;0.533321;0.539941;0.536603;0.540578;0.544601;0.544868;0.550428;0.553650;0.558807;0.561979;0.572248;0.571866;0.572698;0.580893;0.585383;0.587121;0.592860;0.600217;0.603105;0.607038;0.613516;0.621165;0.624626;0.633406;0.637429;0.644883;0.653997;0.655917;0.665326;0.668810;0.682976;0.685436;0.694464;0.701055;0.705836;0.708601;0.723176;0.727717;0.735795;0.740120;0.751280;0.756893;0.759880;0.764560;0.765182;0.777438;0.787043;0.790875;0.793367;0.799008;0.805300;0.806345;0.814862;0.815278;0.819168;0.820308;0.824129;0.829570;0.824921;0.827189;0.831805;0.831847;0.828344;0.829123;0.827379;0.831505;0.831131;0.829404;0.827547;0.823784;0.827072;0.823169;0.818131;0.813499;0.816984;0.810867;0.807694;0.804362;0.798309;0.802223;0.791080;0.790143;0.782396;0.783945;0.781534;0.776555;0.774240;0.767828;0.764745;0.759690;0.758044;0.750269;0.746733;0.743998;0.736107;0.732415;0.732617;0.729269;0.724957;0.723927;0.716679;0.715666;0.710660;0.710569;0.702711;0.702216;0.699825;0.695634;0.689350;0.689647;0.683916;0.677651;0.679512;0.675818;0.674530;0.670867;0.666902;0.658054;0.659976;0.654496;0.659119;0.651167;0.648398;0.648043;0.646786;0.638016;0.637282;0.637721;0.634667;0.630002;0.625517;0.620289;0.621195;0.621834;0.614051;0.616223;0.613889;0.608041;0.609100;0.602964;0.599704;0.594813;0.599648;0.601115;0.592360;0.588132;0.585712;0.580060;0.579965;0.570931;0.576485;0.571091;0.570878;0.562851;0.565523;0.564467;0.560472;0.558538;0.560107;0.555306;0.548236;0.555369;0.542940;0.541036;0.543908;0.540660;0.541281;0.537130;0.537124;0.532840;0.527628;0.530629;0.530746;0.523362;0.524284;0.525400;0.525370
0.510292;0.511306;0.514233;0.502963;0.509938;0.514264;0.517890;0.514099;0.518542;0.515673;0.516171;0.519255;0.515781;0.520689;0.520244;0.521214;0.523900;0.526991;0.529883;0.527117;0.530219;0.532699;0.534219;0.538568;0.537787;0.539064;0.541773;0.542942;0.539910;0.547710;0.548121;0.546640;0.546991;0.551208;0.548302;0.557702;0.559612;0.555828;0.562531;0.566277;0.565833;0.570641;0.569874;0.575474;0.576414;0.575569;0.581122;0.588499;0.589269;0.591180;0.593780;0.590792;0.599538;0.596731;0.603406;0.607396;0.615257;0.612190;0.621443;0.622187;0.619859;0.626044;0.630114;0.637119;0.641797;0.639753;0.640146;0.645034;0.650006;0.650425;0.653608;0.657860;0.660149;0.665155;0.670909;0.670665;0.670404;0.673720;0.675728;0.680172;0.682454;0.688867;0.691497;0.693719;0.693393;0.696430;0.702987;0.702304;0.707046;0.712081;0.710303;0.710142;0.714493;0.714751;0.723105;0.718636;0.725151;0.729052;0.728658;0.732157;0.733543;0.733864;0.734921;0.739755;0.742102;0.742633;0.743189;0.755217;0.751705;0.750397;0.749219;0.751586;0.755602;0.754138;0.758110;0.754826;0.759258;0.761333;0.763358;0.764675;0.757628;0.760255;0.761158;0.759718;0.767186;0.765524;0.766722;0.767072;0.767160;0.766347;0.770550;0.766558;0.763577;0.765738;0.761256;0.762737;0.762963;0.764698;0.762022;0.754281;0.756787;0.761208;0.756871;0.751931;0.759902;0.753514;0.752360;0.752975;0.749634;0.748923;0.747102;0.739584;0.741070;0.736512;0.734323;0.729971;0.734452;0.727764;0.721466;0.715510;0.719796;0.715478;0.704447;0.709028;0.704396;0.697435;0.689549;0.688406;0.685232;0.680285;0.674833;0.676386;0.665939;0.651629;0.658325;0.653883;0.647409;0.646146;0.640678;0.630804;0.624906;0.624985;0.623618;0.617450;0.612360;0.606274;0.601125;0.594233;0.596765;0.586824;0.583606;0.581990;0.572668;0.570822;0.569337;0.563978;0.559557;0.556784;0.556395;0.548189
0.566039;0.572698;0.579379;0.586166;0.588853;0.593623;0.598647;0.605571;0.611987;0.617533;0.623915;0.626864;0.634699;0.639409;0.646763;0.648618;0.657117;0.664033;0.671062;0.676355;0.681799;0.686424;0.697452;0.697612;0.704395;0.713679;0.717561;0.717865;0.725954;0.726417;0.734723;0.732381;0.741390;0.745750;0.745123;0.748564;0.747179;0.755175;0.755981;0.755615;0.756840;0.754511;0.752306;0.750986;0.756605;0.748953;0.743987;0.744178;0.744390;0.739303;0.729848;0.737067;0.730663;0.729263;0.720737;0.716968;0.711361;0.710089;0.703811;0.701423;0.696326;0.686863;0.686768;0.679438;0.674719;0.673336;0.672352;0.661927;0.658301;0.660695;0.646827;0.645716;0.646398;0.640004;0.634387;0.636941;0.631151;0.631903;0.635491;0.632703;0.626378;0.625872;0.622460;0.624490;0.626718;0.627329;0.625144;0.629854;0.624865;0.628867;0.628035;0.627735;0.633562;0.638759;0.641693;0.641586;0.640383;0.648111;0.645771;0.652519;0.650707;0.661765;0.658178;0.662313;0.668773;0.669470;0.671291;0.678135;0.676462;0.678323;0.681492;0.684438;0.688348;0.693334;0.689349;0.693478;0.693409;0.696105;0.697022;0.699611;0.697555;0.702819;0.701077;0.701032;0.703689;0.699685;0.701631;0.694113;0.695872;0.697917;0.696685;0.689982;0.689908;0.689636;0.682186;0.682133;0.686440;0.679932;0.681061;0.675332;0.673545;0.671028;0.670378;0.661775;0.657594;0.656234;0.653807;0.647640;0.644371;0.646157;0.637567;0.633592;0.637641;0.626864;0.623883;0.624497;0.615282;0.615930;0.615249;0.606525;0.604759;0.603524;0.601116;0.600150;0.596874;0.589213;0.587628;0.586044;0.586743;0.582211;0.575847;0.572274;0.571677;0.566294;0.563493;0.565181;0.560554;0.554808;0.550729;0.551354;0.551143;0.545477;0.539480;0.544395;0.541085;0.540099;0.533072;0.536755;0.530856;0.529437;0.529302;0.528399;0.527346;0.527266;0.515075;0.518908;0.520806;0.517817;0.514990;0.516773
0.554824;0.559674;0.561627;0.566674;0.569690;0.576009;0.576995;0.579361;0.588062;0.592562;0.598128;0.600377;0.608769;0.617266;0.619813;0.620481;0.624707;0.635907;0.641903;0.646132;0.650513;0.653073;0.661660;0.656230;0.668076;0.673473;0.678301;0.682630;0.681812;0.689611;0.696007;0.701911;0.700967;0.702423;0.709258;0.709540;0.719600;0.711678;0.719450;0.721604;0.723531;0.724251;0.725934;0.723901;0.728438;0.727084;0.729163;0.725939;0.728126;0.724931;0.725682;0.721224;0.722313;0.719331;0.725337;0.720701;0.718726;0.713481;0.711750;0.716336;0.708964;0.709415;0.707094;0.704933;0.702332;0.696190;0.694684;0.692686;0.693217;0.690859;0.689547;0.682540;0.679116;0.677655;0.678311;0.673201;0.675206;0.668176;0.669194;0.669896;0.666830;0.660487;0.657261;0.658393;0.650915;0.648069;0.653538;0.648966;0.648414;0.649829;0.645039;0.645372;0.639608;0.640204;0.636615;0.633405;0.638412;0.629238;0.629542;0.633878;0.626552;0.629175;0.631696;0.632227;0.629230;0.628224;0.628709;0.629775;0.630750;0.626295;0.624680;0.632149;0.629993;0.630259;0.632347;0.634287;0.631099;0.633403;0.634440;0.630390;0.632894;0.640237;0.633751;0.641128;0.643876;0.639240;0.643966;0.643099;0.646853;0.642971;0.647249;0.652881;0.652546;0.653822;0.655797;0.651809;0.659243;0.660860;0.665697;0.660241;0.665653;0.666510;0.664399;0.670348;0.670328;0.670455;0.676092;0.670329;0.674391;0.672763;0.678089;0.680634;0.671991;0.677680;0.678643;0.680091;0.673169;0.674408;0.676852;0.674801;0.673999;0.669094;0.665363;0.664780;0.666649;0.660694;0.655911;0.655926;0.652298;0.652571;0.650426;0.641927;0.640577;0.641269;0.639275;0.631465;0.630874;0.621014;0.613865;0.615816;0.614726;0.606576;0.602530;0.598056;0.596332;0.588941;0.587878;0.586828;0.576349;0.578728;0.568493;0.574292;0.568606;0.563856;0.558074;0.559049;0.554296;0.554373;0.550227;0.546052
0.553953;0.559993;0.566416;0.561502;0.573919;0.578277;0.580648;0.587926;0.589527;0.598273;0.596833;0.604397;0.608025;0.612274;0.618725;0.628569;0.631832;0.636573;0.645554;0.649136;0.655251;0.659966;0.664387;0.671549;0.679504;0.686228;0.690697;0.689817;0.701226;0.701457;0.703890;0.710365;0.715908;0.722172;0.731166;0.733619;0.736787;0.740462;0.745832;0.747051;0.749222;0.755990;0.755455;0.762135;0.757033;0.766672;0.767333;0.765640;0.773014;0.769866;0.779805;0.772387;0.778298;0.782380;0.777656;0.783789;0.781272;0.784632;0.782171;0.786370;0.785319;0.782002;0.782420;0.784695;0.781404;0.786648;0.786361;0.778672;0.779025;0.784884;0.779809;0.776404;0.771572;0.775693;0.770224;0.768248;0.766732;0.763150;0.760109;0.758787;0.752000;0.754210;0.747240;0.748183;0.741192;0.744694;0.738570;0.733476;0.727603;0.728987;0.718645;0.714169;0.711983;0.710074;0.702171;0.697325;0.695974;0.694331;0.684842;0.680817;0.680607;0.674432;0.665713;0.665209;0.659766;0.657117;0.653873;0.647440;0.641900;0.641757;0.638120;0.630803;0.629191;0.625946;0.618401;0.618858;0.619429;0.615170;0.612812;0.609241;0.606279;0.607645;0.602531;0.602933;0.598462;0.600270;0.596605;0.599468;0.596728;0.595401;0.595146;0.593051;0.590359;0.589529;0.588862;0.587312;0.585861;0.589642;0.584627;0.588012;0.586936;0.583078;0.587484;0.588669;0.591687;0.591754;0.587286;0.583067;0.589441;0.587056;0.583233;0.584349;0.588405;0.590274;0.584987;0.585004;0.587763;0.579398;0.586101;0.583151;0.580295;0.586068;0.577795;0.584932;0.578514;0.577312;0.574448;0.572063;0.574985;0.568186;0.571093;0.567344;0.565764;0.561158;0.560519;0.561832;0.557041;0.556208;0.555474;0.556450;0.555849;0.548687;0.547519;0.545839;0.539160;0.541576;0.540147;0.536926;0.538155;0.532573;0.533168;0.529904;0.527264;0.527711;0.520881;0.521743;0.522228;0.520582;0.519119;0.518240
0.539498;0.543639;0.536187;0.549326;0.549603;0.547367;0.553611;0.560252;0.562448;0.564964;0.564745;0.570991;0.573263;0.578218;0.586765;0.584608;0.590777;0.596608;0.592009;0.601601;0.607697;0.609740;0.613059;0.615354;0.619096;0.626316;0.631680;0.633343;0.637525;0.640689;0.644458;0.647160;0.653503;0.655498;0.658456;0.667304;0.665959;0.670973;0.673472;0.676144;0.680846;0.684147;0.686091;0.686402;0.686378;0.689729;0.694599;0.693605;0.701980;0.702496;0.702445;0.707141;0.710742;0.710332;0.712707;0.714048;0.715337;0.718299;0.719517;0.720378;0.723362;0.719170;0.720237;0.724418;0.725581;0.722265;0.722422;0.723964;0.722273;0.729910;0.726054;0.728595;0.725163;0.720864;0.727958;0.722037;0.715636;0.717378;0.718179;0.712434;0.711848;0.712968;0.711307;0.708554;0.708966;0.706827;0.700353;0.696208;0.698347;0.693616;0.695122;0.693645;0.691671;0.685585;0.677913;0.675615;0.673513;0.671343;0.671994;0.659316;0.665370;0.663814;0.656524;0.657662;0.651048;0.651282;0.642526;0.642938;0.645022;0.641450;0.636537;0.635291;0.633089;0.636501;0.634890;0.626084;0.630460;0.627257;0.622245;0.629576;0.629642;0.626404;0.626355;0.630232;0.625445;0.622312;0.627179;0.631596;0.636001;0.633138;0.632272;0.634294;0.638541;0.640268;0.642136;0.640016;0.645423;0.647690;0.652320;0.654233;0.654405;0.658089;0.658802;0.659909;0.659311;0.662412;0.667145;0.666937;0.666934;0.667474;0.668273;0.669668;0.670977;0.675109;0.674107;0.676434;0.669777;0.672902;0.670341;0.672526;0.669291;0.670136;0.670273;0.667467;0.665530;0.663034;0.661886;0.665033;0.655936;0.653805;0.648001;0.645365;0.640462;0.642645;0.636603;0.637960;0.632504;0.628178;0.624238;0.617222;0.616666;0.607151;0.604872;0.604492;0.595714;0.592282;0.590679;0.590382;0.583147;0.571056;0.582420;0.567305;0.569135;0.563661;0.558376;0.554285;0.552579;0.550891;0.543426;0.541813
