1100;1105;1110;1115;1120;1125;1130;1135;1140;1145;1150;1155;1160;1165;1170;1175;1180;1185;1190;1195;1200;1205;1210;1215;1220;1225;1230;1235;1240;1245;1250;1255;1260;1265;1270;1275;1280;1285;1290;1295;1301;1306;1311;1316;1321;1326;1331;1336;1341;1346;1351;1356;1361;1366;1371;1376;1381;1386;1391;1396;1401;1406;1411;1416;1421;1426;1431;1436;1441;1446;1451;1456;1461;1466;1471;1476;1481;1486;1491;1496;1502;1507;1512;1517;1522;1527;1532;1537;1542;1547;1552;1557;1562;1567;1572;1577;1582;1587;1592;1597;1602;1607;1612;1617;1622;1627;1632;1637;1642;1647;1652;1657;1662;1667;1672;1677;1682;1687;1692;1697;1703;1708;1713;1718;1723;1728;1733;1738;1743;1748;1753;1758;1763;1768;1773;1778;1783;1788;1793;1798;1803;1808;1813;1818;1823;1828;1833;1838;1843;1848;1853;1858;1863;1868;1873;1878;1883;1888;1893;1898;1904;1909;1914;1919;1924;1929;1934;1939;1944;1949;1954;1959;1964;1969;1974;1979;1984;1989;1994;1999;2004;2009;2014;2019;2024;2029;2034;2039;2044;2049;2054;2059;2064;2069;2074;2079;2084;2089;2094;2100
0.511081;0.506078;0.511159;0.510514;0.505502;0.515232;0.513220;0.512843;0.515964;0.510493;0.514441;0.514527;0.521838;0.518292;0.521755;0.523730;0.522377;0.523493;0.529047;0.530516;0.525563;0.529727;0.534185;0.536097;0.536509;0.540070;0.542759;0.538227;0.545676;0.549917;0.555339;0.558122;0.558043;0.562367;0.566366;0.570743;0.571718;0.575585;0.583018;0.584639;0.585558;0.595938;0.597064;0.602911;0.605001;0.619300;0.613368;0.621608;0.627098;0.631288;0.641017;0.640680;0.646390;0.652839;0.659041;0.661481;0.676081;0.672522;0.686635;0.689745;0.692950;0.701210;0.706977;0.708868;0.713258;0.717162;0.719663;0.723748;0.733078;0.737271;0.735381;0.746952;0.752978;0.751863;0.757071;0.757821;0.764557;0.766347;0.773224;0.770415;0.769631;0.770542;0.772445;0.769281;0.773107;0.778507;0.772697;0.778851;0.772116;0.771166;0.766828;0.777435;0.769079;0.768159;0.767870;0.759228;0.764231;0.763835;0.756762;0.753532;0.754660;0.749396;0.745738;0.747575;0.742904;0.739458;0.743172;0.735133;0.736974;0.731413;0.727694;0.725753;0.724866;0.718875;0.718462;0.716524;0.710685;0.713348;0.711832;0.709234;0.703199;0.710162;0.700836;0.700486;0.696637;0.699516;0.692674;0.693233;0.697424;0.691326;0.687667;0.697193;0.689825;0.693606;0.690207;0.692807;0.687099;0.689676;0.681067;0.680886;0.689042;0.684930;0.684141;0.684993;0.681170;0.687039;0.682669;0.681420;0.678607;0.681354;0.678003;0.679593;0.677437;0.671615;0.668966;0.672560;0.671166;0.669536;0.667219;0.657836;0.661253;0.658220;0.657972;0.650960;0.654500;0.651467;0.645548;0.644033;0.644039;0.636177;0.643503;0.636102;0.632098;0.628244;0.623568;0.617845;0.610666;0.607160;0.608253;0.602015;0.595910;0.591937;0.589429;0.585818;0.583722;0.582471;0.573553;0.571259;0.570011;0.566573;0.557193;0.554128;0.556365;0.548387;0.546410;0.546667;0.544871;0.541531;0.534887;0.535733
0.515722;0.518372;0.517813;0.521308;0.520529;0.522699;0.515732;0.523167;0.523087;0.524045;0.528348;0.526135;0.535141;0.529543;0.532739;0.536096;0.537847;0.537207;0.542310;0.542292;0.544680;0.543560;0.548987;0.550131;0.549022;0.551435;0.554097;0.552716;0.559369;0.556610;0.559356;0.559823;0.560976;0.565710;0.563351;0.566249;0.568899;0.566325;0.573695;0.572058;0.573113;0.573596;0.571145;0.580983;0.573988;0.585309;0.579749;0.579883;0.585613;0.588595;0.582711;0.582725;0.588935;0.589470;0.590755;0.586485;0.591919;0.590121;0.594180;0.587450;0.594683;0.598465;0.592585;0.592873;0.595145;0.597832;0.596976;0.602633;0.597098;0.602261;0.603159;0.605185;0.604225;0.596197;0.603202;0.608164;0.606786;0.605461;0.605013;0.608360;0.606855;0.612052;0.609322;0.613574;0.609027;0.611574;0.614195;0.611482;0.617626;0.617360;0.620752;0.617323;0.622833;0.626351;0.619744;0.631315;0.622936;0.625688;0.626507;0.629113;0.634466;0.632616;0.635899;0.633519;0.637922;0.645512;0.644308;0.652898;0.651530;0.653091;0.655155;0.659745;0.661676;0.664508;0.672761;0.671611;0.675036;0.676730;0.678060;0.688210;0.691289;0.693278;0.693952;0.700786;0.709145;0.714217;0.713737;0.721756;0.723908;0.732748;0.737369;0.738108;0.742976;0.745586;0.754590;0.754367;0.760892;0.768559;0.771721;0.777153;0.782363;0.788420;0.790847;0.792803;0.792441;0.800676;0.806898;0.809388;0.810373;0.808746;0.810878;0.813666;0.818395;0.821487;0.816796;0.815254;0.815717;0.817689;0.821373;0.812323;0.813997;0.808669;0.807572;0.803127;0.803482;0.795717;0.795398;0.792617;0.784217;0.780508;0.775944;0.771268;0.759216;0.753856;0.751527;0.745407;0.731780;0.732455;0.727837;0.718249;0.708755;0.699320;0.693252;0.686628;0.675868;0.667780;0.663076;0.657038;0.650437;0.643944;0.634668;0.628021;0.623557;0.613228;0.607042;0.606515;0.603623;0.596131;0.582176;0.582680
0.557059;0.562001;0.562599;0.569447;0.572205;0.575988;0.581574;0.585080;0.589257;0.593921;0.600282;0.606715;0.612628;0.614008;0.622579;0.621434;0.634666;0.640602;0.648176;0.652984;0.656967;0.661559;0.665608;0.670693;0.675192;0.684004;0.691356;0.693959;0.700472;0.704277;0.709997;0.714835;0.722983;0.726089;0.730281;0.736051;0.740927;0.743539;0.749452;0.754326;0.754144;0.755437;0.764555;0.764393;0.769978;0.769028;0.776802;0.780537;0.777667;0.778480;0.785981;0.787018;0.787736;0.785101;0.788022;0.790353;0.791475;0.788925;0.793833;0.793845;0.795921;0.800360;0.797121;0.793993;0.798615;0.790228;0.792158;0.791950;0.788335;0.791580;0.786493;0.789852;0.781709;0.779607;0.781675;0.783032;0.774830;0.773907;0.768749;0.765686;0.763095;0.760419;0.756931;0.752448;0.750589;0.749692;0.743170;0.738024;0.738388;0.734728;0.728280;0.720467;0.719508;0.713413;0.705381;0.701494;0.693532;0.690516;0.692906;0.688811;0.678695;0.668781;0.666959;0.669229;0.660740;0.658767;0.648947;0.643278;0.642381;0.644573;0.636536;0.631427;0.625899;0.620978;0.617461;0.616655;0.612443;0.607471;0.607167;0.599628;0.601077;0.598584;0.597331;0.590564;0.589347;0.593484;0.588794;0.588262;0.585353;0.591705;0.587685;0.582188;0.587518;0.585597;0.583868;0.579463;0.582664;0.586750;0.583013;0.580262;0.582913;0.586821;0.586115;0.589686;0.582267;0.586351;0.585923;0.585312;0.582304;0.588083;0.583518;0.590865;0.583318;0.582384;0.585358;0.585161;0.581661;0.586339;0.583287;0.590668;0.585670;0.580731;0.581473;0.579078;0.578076;0.580302;0.583288;0.575550;0.574304;0.571397;0.571036;0.566569;0.567618;0.565898;0.565645;0.564607;0.561128;0.557463;0.560950;0.556313;0.550229;0.554032;0.549091;0.551515;0.551160;0.545041;0.542507;0.540607;0.540321;0.539155;0.536883;0.536765;0.529265;0.528423;0.527070;0.531055;0.522647;0.525138;0.519984;0.522818
0.515757;0.514141;0.514420;0.519828;0.522484;0.521967;0.525756;0.522794;0.524687;0.531190;0.526227;0.527055;0.531582;0.532501;0.534227;0.534468;0.539154;0.542863;0.539087;0.545643;0.550199;0.550210;0.553789;0.552180;0.560052;0.553395;0.567133;0.564335;0.569350;0.571075;0.575464;0.577299;0.583606;0.576171;0.590673;0.592792;0.591520;0.596785;0.604566;0.601299;0.608572;0.607032;0.615421;0.618461;0.622240;0.628478;0.628220;0.633621;0.642029;0.647455;0.650437;0.652556;0.660692;0.657316;0.662340;0.664661;0.673026;0.677401;0.682555;0.690009;0.690967;0.693422;0.694755;0.698647;0.702367;0.707589;0.710945;0.709769;0.719743;0.719172;0.722570;0.721147;0.723132;0.721314;0.730093;0.723884;0.726830;0.730397;0.733391;0.727362;0.730086;0.731509;0.730008;0.726802;0.728807;0.724256;0.726166;0.718963;0.721430;0.719121;0.717905;0.711346;0.717474;0.714344;0.710116;0.709312;0.703270;0.701985;0.697286;0.694250;0.689404;0.689898;0.685398;0.680082;0.679508;0.678359;0.668686;0.673282;0.668663;0.666536;0.659919;0.660076;0.657933;0.655977;0.656284;0.655156;0.657045;0.651421;0.652569;0.649700;0.651208;0.658121;0.651377;0.655894;0.654139;0.652747;0.654674;0.657857;0.658654;0.668777;0.665012;0.663520;0.664921;0.666951;0.673889;0.668919;0.677576;0.678975;0.682981;0.682725;0.690727;0.688301;0.693846;0.696038;0.696751;0.699868;0.701796;0.705654;0.703324;0.706363;0.708461;0.707933;0.715129;0.715921;0.716640;0.718937;0.713587;0.712534;0.709439;0.712508;0.710014;0.707312;0.709881;0.706387;0.707028;0.704826;0.701149;0.696722;0.690460;0.690621;0.690677;0.681189;0.680884;0.677058;0.671097;0.666923;0.662778;0.654986;0.651768;0.642627;0.640468;0.640249;0.629025;0.627910;0.621835;0.618482;0.608845;0.604580;0.596851;0.592820;0.595556;0.585271;0.574585;0.572992;0.575673;0.569829;0.569927;0.560989;0.559719;0.553468
0.503352;0.507134;0.502000;0.505795;0.504916;0.503873;0.505020;0.508628;0.501530;0.510869;0.512904;0.506613;0.508768;0.512076;0.515110;0.513615;0.510039;0.515888;0.512067;0.517721;0.514243;0.514070;0.524452;0.518754;0.523560;0.524957;0.531398;0.528858;0.532691;0.531940;0.534790;0.537112;0.540831;0.543708;0.546281;0.552218;0.551872;0.551147;0.559389;0.561350;0.562879;0.564028;0.570043;0.573708;0.577313;0.586255;0.588787;0.588019;0.596738;0.601108;0.602352;0.611916;0.615144;0.621990;0.621362;0.629991;0.636277;0.640644;0.649459;0.654013;0.659458;0.661729;0.670161;0.672362;0.674942;0.681980;0.692643;0.693605;0.699421;0.701553;0.712622;0.716525;0.720018;0.724687;0.729940;0.734040;0.735547;0.742488;0.749387;0.752888;0.758318;0.760429;0.765463;0.770241;0.772581;0.773277;0.776539;0.785196;0.788276;0.785126;0.793608;0.798709;0.800906;0.800734;0.802488;0.808717;0.811679;0.811203;0.812280;0.814387;0.813904;0.818143;0.822336;0.819022;0.819151;0.830541;0.823794;0.825474;0.824928;0.823921;0.821820;0.823046;0.822164;0.821307;0.822268;0.821444;0.821759;0.815695;0.818114;0.813087;0.812648;0.814218;0.809563;0.808021;0.805594;0.796293;0.799594;0.795908;0.787046;0.783631;0.781446;0.777771;0.773307;0.773107;0.764501;0.760330;0.750634;0.748125;0.742778;0.736509;0.732861;0.733263;0.721061;0.716566;0.712257;0.708229;0.697990;0.693786;0.694385;0.690436;0.681317;0.673212;0.672645;0.670896;0.656856;0.656994;0.655660;0.649033;0.645818;0.637844;0.633811;0.627645;0.623922;0.617974;0.617026;0.617799;0.610869;0.605285;0.602368;0.597331;0.593237;0.593578;0.587452;0.580685;0.581038;0.577108;0.575122;0.570200;0.567812;0.567994;0.563866;0.560123;0.559705;0.557673;0.552933;0.546104;0.546921;0.548995;0.546333;0.540722;0.539263;0.536996;0.537360;0.537063;0.526991;0.529848;0.531823;0.529972;0.528965;0.524117
0.560326;0.563846;0.570227;0.570046;0.573957;0.576971;0.586429;0.587216;0.590718;0.596746;0.601499;0.608091;0.609106;0.619177;0.624789;0.627213;0.633342;0.639772;0.643873;0.646111;0.656422;0.655552;0.662876;0.667651;0.670336;0.670549;0.685275;0.683629;0.692365;0.687342;0.697878;0.693812;0.703590;0.707600;0.708718;0.709505;0.713575;0.711940;0.714428;0.714491;0.712604;0.718652;0.713904;0.713570;0.718104;0.718795;0.708516;0.709786;0.707324;0.706786;0.706160;0.704326;0.700205;0.704691;0.693175;0.693102;0.689805;0.688263;0.684408;0.676190;0.673933;0.672711;0.669332;0.661396;0.659015;0.658916;0.655274;0.647014;0.649866;0.636063;0.639390;0.638245;0.633827;0.628952;0.629274;0.630429;0.624632;0.626526;0.623170;0.621978;0.621064;0.610482;0.618625;0.619456;0.619539;0.616546;0.614402;0.615683;0.614462;0.612350;0.616688;0.617165;0.617795;0.616582;0.621552;0.626459;0.618369;0.622310;0.625416;0.632560;0.632054;0.630872;0.632927;0.636707;0.641207;0.642456;0.646353;0.647376;0.648239;0.657420;0.652772;0.654048;0.655933;0.662599;0.663946;0.669675;0.667152;0.671142;0.675053;0.673518;0.677167;0.680583;0.678480;0.680550;0.682548;0.682522;0.685668;0.682743;0.690976;0.697319;0.691457;0.688551;0.691955;0.697160;0.698282;0.695108;0.696161;0.692677;0.697350;0.696429;0.697692;0.697427;0.698505;0.695919;0.697978;0.695867;0.696337;0.695569;0.692549;0.692429;0.693193;0.688878;0.692002;0.688264;0.688120;0.677747;0.678002;0.686444;0.679058;0.677598;0.673231;0.670341;0.666612;0.666469;0.659281;0.653062;0.651549;0.653884;0.651085;0.643812;0.642342;0.646476;0.633797;0.630098;0.629788;0.625508;0.623728;0.620028;0.607379;0.613830;0.600782;0.602589;0.598791;0.596960;0.590648;0.582954;0.582977;0.583710;0.572727;0.570066;0.567208;0.563721;0.558458;0.558870;0.553033;0.553242;0.552252;0.543127;0.538698;0.543150
0.507275;0.510854;0.510165;0.518113;0.514065;0.517262;0.516538;0.516656;0.515534;0.518987;0.520633;0.524490;0.523618;0.522229;0.528823;0.528944;0.522400;0.533795;0.531265;0.533399;0.531664;0.534821;0.539861;0.536227;0.539894;0.541188;0.544034;0.544046;0.547159;0.545889;0.548956;0.546037;0.548125;0.547783;0.548737;0.544162;0.554153;0.553409;0.553499;0.552887;0.556564;0.553751;0.559660;0.557404;0.560968;0.561928;0.564796;0.560458;0.564314;0.564343;0.567760;0.568576;0.571198;0.573571;0.567434;0.574854;0.573943;0.572895;0.580700;0.581636;0.580931;0.587472;0.586624;0.589275;0.594511;0.593028;0.594449;0.600504;0.597703;0.606608;0.605221;0.613749;0.614655;0.619037;0.620042;0.631568;0.630846;0.636100;0.641063;0.646923;0.649587;0.660003;0.661345;0.671064;0.678216;0.681845;0.692458;0.696150;0.700656;0.706209;0.717773;0.721694;0.729962;0.738336;0.740914;0.751904;0.755545;0.768891;0.773080;0.782801;0.790436;0.791729;0.805585;0.812182;0.818239;0.825020;0.829722;0.837771;0.843977;0.846408;0.849839;0.853800;0.859098;0.860945;0.863262;0.868464;0.868582;0.876625;0.869118;0.881228;0.871917;0.873818;0.877986;0.878473;0.874570;0.873338;0.867516;0.863941;0.868139;0.866797;0.857924;0.858996;0.853491;0.849771;0.844845;0.838459;0.833201;0.824851;0.825465;0.814998;0.811670;0.804025;0.797556;0.788181;0.783796;0.779355;0.768993;0.763654;0.762030;0.749210;0.743995;0.740006;0.733810;0.729729;0.721088;0.712799;0.706597;0.699887;0.694408;0.690105;0.685260;0.674896;0.671916;0.670469;0.661980;0.652120;0.649370;0.642594;0.638449;0.637737;0.630554;0.622322;0.619543;0.615322;0.609181;0.605738;0.603372;0.599232;0.593241;0.592451;0.590948;0.581815;0.577481;0.580318;0.575575;0.567492;0.566467;0.568827;0.559247;0.560155;0.554902;0.551266;0.551517;0.550173;0.547677;0.549642;0.547428;0.544203;0.537251;0.536854
0.506044;0.504824;0.507615;0.509918;0.509428;0.514788;0.509412;0.510072;0.510022;0.513106;0.511382;0.513423;0.515201;0.514682;0.516193;0.520270;0.522045;0.521506;0.523481;0.524209;0.522818;0.529161;0.531225;0.531918;0.538187;0.533337;0.545529;0.544802;0.546523;0.549111;0.547842;0.555075;0.555914;0.562130;0.567823;0.566960;0.574681;0.580071;0.582835;0.584680;0.595152;0.598244;0.602640;0.608190;0.614036;0.620173;0.627752;0.628053;0.639054;0.643063;0.652185;0.654959;0.660862;0.666097;0.675228;0.683051;0.686883;0.695171;0.705724;0.707269;0.711987;0.724504;0.732107;0.741893;0.744370;0.753909;0.756391;0.766856;0.770232;0.777725;0.780983;0.789401;0.796681;0.801566;0.803925;0.807415;0.813129;0.811422;0.819934;0.825457;0.828622;0.832293;0.828891;0.832042;0.837410;0.845032;0.838087;0.846751;0.843865;0.843371;0.844731;0.840602;0.846309;0.845276;0.845215;0.840280;0.845125;0.843743;0.846173;0.839987;0.837389;0.832287;0.835898;0.833498;0.834658;0.833773;0.824204;0.824257;0.822863;0.821581;0.820289;0.810146;0.809518;0.802860;0.801014;0.792772;0.792569;0.793402;0.788578;0.778804;0.771908;0.774584;0.765629;0.764785;0.762917;0.757251;0.751128;0.742670;0.740924;0.731543;0.732260;0.722622;0.719849;0.712692;0.704870;0.700046;0.697072;0.688287;0.685506;0.682270;0.672485;0.670801;0.664851;0.658176;0.654585;0.653506;0.642851;0.641533;0.629458;0.627752;0.628906;0.620066;0.612894;0.608001;0.610114;0.597717;0.602098;0.593864;0.588031;0.585168;0.582860;0.582637;0.576283;0.571621;0.564322;0.566486;0.562381;0.558562;0.553471;0.555568;0.551296;0.546683;0.548120;0.547800;0.541233;0.536845;0.541479;0.535410;0.536961;0.530947;0.533215;0.528324;0.527747;0.527266;0.526565;0.530533;0.520967;0.520261;0.523252;0.519457;0.518359;0.515519;0.518621;0.521703;0.518684;0.517000;0.513806;0.515940;0.515218;0.513155
0.533865;0.534691;0.537608;0.539343;0.541832;0.540914;0.541469;0.546957;0.550427;0.553826;0.555542;0.559493;0.564429;0.570108;0.569811;0.569897;0.577071;0.577077;0.586639;0.588580;0.590491;0.593558;0.600080;0.605620;0.611013;0.608846;0.613117;0.614053;0.620968;0.624234;0.631509;0.635790;0.640205;0.641128;0.645195;0.652395;0.657438;0.660234;0.663718;0.665109;0.670539;0.667615;0.675384;0.681386;0.689151;0.689509;0.694725;0.693839;0.700191;0.703758;0.708368;0.711937;0.714168;0.715965;0.723170;0.725789;0.729449;0.732524;0.733808;0.742282;0.739314;0.742940;0.745380;0.747980;0.755187;0.750453;0.755126;0.751743;0.757350;0.752122;0.756940;0.760183;0.762361;0.758811;0.763580;0.760132;0.760832;0.758899;0.758317;0.753493;0.753422;0.747966;0.747526;0.747753;0.746373;0.746554;0.744225;0.732569;0.733546;0.725045;0.726614;0.719574;0.720040;0.711952;0.711839;0.701404;0.699674;0.693586;0.691298;0.683936;0.677540;0.676763;0.672444;0.662415;0.664387;0.662529;0.655916;0.644867;0.650081;0.642859;0.639116;0.634940;0.631872;0.629934;0.628419;0.627876;0.619186;0.623315;0.614753;0.617491;0.615405;0.616686;0.610209;0.611926;0.613445;0.613077;0.612053;0.612340;0.612388;0.620636;0.617902;0.623551;0.616808;0.620946;0.627755;0.625253;0.629140;0.626768;0.632102;0.634211;0.635963;0.638651;0.637031;0.643388;0.646575;0.648147;0.649070;0.647572;0.658974;0.653570;0.654498;0.656282;0.660276;0.659979;0.658989;0.661716;0.664408;0.664754;0.665536;0.661374;0.661242;0.667066;0.661256;0.658517;0.659882;0.654394;0.656544;0.652067;0.648695;0.645551;0.647951;0.642157;0.637329;0.634422;0.634142;0.628210;0.625231;0.628102;0.620951;0.612731;0.617401;0.612698;0.604439;0.602239;0.592546;0.592139;0.584963;0.588750;0.578397;0.579319;0.574475;0.565153;0.565864;0.560575;0.562021;0.558899;0.553419;0.554277;0.545387;0.540492
0.518251;0.517649;0.519879;0.517023;0.528383;0.523337;0.527856;0.530848;0.527157;0.531549;0.531474;0.533139;0.537563;0.533908;0.538162;0.541844;0.542324;0.542889;0.544148;0.546346;0.549370;0.551047;0.548896;0.548645;0.552297;0.553041;0.560056;0.555876;0.559098;0.562170;0.557677;0.558801;0.564590;0.568875;0.564154;0.568955;0.567955;0.573255;0.570684;0.569293;0.565162;0.569584;0.570906;0.567736;0.566807;0.570893;0.574367;0.569155;0.565989;0.568229;0.571244;0.573656;0.573468;0.567155;0.574217;0.566357;0.571144;0.570332;0.567025;0.569933;0.573138;0.567508;0.569389;0.571176;0.573395;0.573304;0.575517;0.571466;0.573027;0.575286;0.578336;0.576047;0.577854;0.585300;0.588336;0.590017;0.589055;0.594782;0.598014;0.601072;0.601568;0.603657;0.606598;0.617431;0.618968;0.626101;0.633486;0.631657;0.640021;0.647579;0.649365;0.659839;0.660008;0.667923;0.671821;0.682004;0.685101;0.692720;0.697980;0.704463;0.707403;0.714342;0.722901;0.730671;0.735483;0.737734;0.746029;0.754567;0.755857;0.761435;0.773290;0.774357;0.777608;0.780299;0.785501;0.795724;0.797159;0.803360;0.802796;0.805439;0.808735;0.810966;0.813890;0.818500;0.818209;0.815383;0.823854;0.824057;0.823991;0.821050;0.818828;0.827429;0.821989;0.820925;0.823154;0.818910;0.819886;0.820763;0.816324;0.813901;0.813882;0.811910;0.812365;0.811906;0.808326;0.802877;0.802221;0.796309;0.792548;0.790638;0.790971;0.783780;0.781158;0.779191;0.774507;0.768830;0.768415;0.764492;0.757061;0.749867;0.748171;0.741515;0.738697;0.737912;0.727751;0.724224;0.720600;0.712372;0.705385;0.703938;0.696764;0.690505;0.687638;0.683162;0.674131;0.673567;0.665464;0.659264;0.654332;0.650036;0.642204;0.639917;0.636225;0.625621;0.622045;0.615496;0.614719;0.607276;0.605091;0.597850;0.595754;0.592433;0.583534;0.580615;0.577281;0.570413;0.570017;0.564784;0.562994;0.559168
0.528614;0.532938;0.536435;0.535908;0.544637;0.542348;0.545568;0.547789;0.550915;0.554196;0.553762;0.555061;0.558217;0.568343;0.569651;0.569038;0.572053;0.578036;0.576790;0.585782;0.585770;0.590209;0.596896;0.593938;0.597109;0.603612;0.604693;0.601668;0.610875;0.611069;0.616983;0.616900;0.620413;0.624408;0.625472;0.623787;0.624979;0.626582;0.632782;0.631662;0.633279;0.637513;0.636626;0.638428;0.637688;0.638062;0.644272;0.648157;0.637518;0.641774;0.641320;0.643847;0.647167;0.641693;0.643371;0.639978;0.639838;0.643577;0.647779;0.645487;0.644426;0.649321;0.646786;0.646768;0.646664;0.647838;0.648022;0.653242;0.652622;0.656558;0.654994;0.657108;0.657951;0.659566;0.662538;0.666838;0.665122;0.670133;0.672311;0.678830;0.680872;0.682305;0.685757;0.686283;0.698742;0.699835;0.705290;0.707750;0.713234;0.715115;0.717677;0.725371;0.732841;0.740918;0.745019;0.748876;0.749962;0.756988;0.759540;0.769682;0.772652;0.780322;0.784461;0.787573;0.790293;0.791529;0.800218;0.801490;0.806665;0.813942;0.812915;0.816318;0.813157;0.821007;0.823711;0.821627;0.823342;0.827024;0.822387;0.820299;0.822824;0.824678;0.820342;0.817128;0.816087;0.810554;0.805949;0.810711;0.798669;0.796513;0.793172;0.786205;0.780963;0.776912;0.769402;0.762724;0.759263;0.749581;0.748803;0.733725;0.730018;0.725575;0.722908;0.707262;0.699691;0.698281;0.693601;0.677238;0.676439;0.669046;0.657400;0.651020;0.648027;0.641729;0.634918;0.627933;0.623344;0.616490;0.611206;0.603063;0.600968;0.595061;0.589514;0.585246;0.583481;0.572438;0.572212;0.570818;0.569355;0.562966;0.554903;0.555319;0.550629;0.549940;0.549418;0.543128;0.540692;0.537867;0.533857;0.532627;0.526304;0.526876;0.526569;0.528351;0.529270;0.524258;0.517655;0.522451;0.514333;0.512810;0.516806;0.510947;0.511515;0.507195;0.514287;0.510368;0.507986;0.505850;0.508448;0.509007
0.554936;0.558676;0.562482;0.565632;0.571451;0.576324;0.580385;0.592487;0.592635;0.595321;0.600360;0.610286;0.612056;0.614929;0.628420;0.625198;0.633481;0.638209;0.645827;0.646194;0.656908;0.660543;0.671254;0.669338;0.673866;0.674913;0.689974;0.687939;0.691045;0.702343;0.704449;0.706484;0.711955;0.717575;0.718187;0.726499;0.728729;0.730943;0.730603;0.733035;0.741228;0.737502;0.740991;0.745810;0.745367;0.747690;0.749275;0.744942;0.748385;0.746753;0.749892;0.745662;0.746773;0.752517;0.748785;0.747588;0.742552;0.744488;0.742492;0.743905;0.747386;0.743945;0.736983;0.738766;0.740383;0.737757;0.736101;0.733035;0.729223;0.723740;0.726665;0.722909;0.721947;0.721214;0.717202;0.715417;0.713512;0.713069;0.711341;0.708706;0.703866;0.703564;0.703396;0.699138;0.698665;0.698706;0.696686;0.690300;0.688949;0.690371;0.685935;0.683116;0.685558;0.685101;0.685258;0.680691;0.674970;0.679412;0.675732;0.674809;0.669567;0.672155;0.670913;0.670045;0.667873;0.665183;0.666996;0.661170;0.662267;0.660405;0.660410;0.658450;0.653576;0.659935;0.655951;0.652881;0.653870;0.654298;0.648629;0.649581;0.647408;0.648510;0.647735;0.648763;0.641884;0.644387;0.641658;0.645090;0.639343;0.640426;0.637985;0.642031;0.637995;0.638136;0.637300;0.635152;0.636473;0.634166;0.632789;0.633728;0.631833;0.628704;0.633072;0.628948;0.627901;0.629686;0.630210;0.624635;0.622024;0.626945;0.622777;0.623119;0.619904;0.620278;0.617969;0.615628;0.613479;0.614880;0.609726;0.610915;0.609577;0.606591;0.606312;0.599506;0.602459;0.600519;0.596078;0.592315;0.588421;0.589876;0.589793;0.587493;0.583416;0.578318;0.576675;0.577003;0.574854;0.571154;0.568390;0.564520;0.563029;0.560468;0.558250;0.554463;0.553443;0.550873;0.552526;0.549566;0.542343;0.540088;0.538293;0.536793;0.536912;0.540945;0.537171;0.532058;0.528248;0.526103;0.522289;0.526694
0.565880;0.569495;0.572682;0.583114;0.584497;0.593095;0.595320;0.600202;0.606160;0.609135;0.619487;0.623182;0.628261;0.630864;0.640981;0.651359;0.653990;0.656176;0.664011;0.672760;0.680384;0.683220;0.688910;0.696038;0.695229;0.701364;0.711177;0.717280;0.714335;0.721866;0.727071;0.729825;0.737451;0.735834;0.742222;0.746483;0.741778;0.747402;0.750317;0.756198;0.757852;0.754337;0.756413;0.757777;0.755524;0.756598;0.751860;0.756587;0.754319;0.749677;0.746631;0.743605;0.736019;0.740908;0.735155;0.731004;0.733816;0.724817;0.720282;0.719370;0.716709;0.713266;0.706189;0.702264;0.697789;0.695708;0.693372;0.690828;0.687684;0.681743;0.678372;0.668630;0.670448;0.666017;0.661208;0.655094;0.652549;0.650896;0.643938;0.641805;0.644672;0.640638;0.643173;0.636074;0.637937;0.632901;0.631322;0.625536;0.625971;0.626407;0.623695;0.622554;0.623178;0.623388;0.626494;0.619252;0.621569;0.618989;0.622373;0.625256;0.621841;0.619760;0.619732;0.624940;0.626094;0.624720;0.624392;0.622497;0.628705;0.625128;0.628386;0.627321;0.631807;0.637638;0.635652;0.632501;0.636099;0.635896;0.632422;0.638780;0.642061;0.639716;0.641818;0.644168;0.643871;0.645229;0.646899;0.654533;0.651729;0.659498;0.654688;0.655443;0.658839;0.658221;0.662529;0.667995;0.669323;0.662240;0.665821;0.669773;0.666047;0.668213;0.673617;0.672354;0.675417;0.671794;0.677345;0.673144;0.672825;0.672236;0.672793;0.671036;0.676611;0.679005;0.673996;0.676884;0.669817;0.669056;0.675720;0.672133;0.674469;0.668484;0.663936;0.665078;0.656610;0.662044;0.654334;0.655972;0.652868;0.649151;0.645720;0.643522;0.640735;0.639746;0.637322;0.632941;0.626328;0.625022;0.628490;0.619943;0.609933;0.610127;0.601770;0.600985;0.596149;0.596931;0.595109;0.587788;0.588736;0.583278;0.581029;0.577490;0.569545;0.569812;0.569369;0.561073;0.560254;0.559823;0.560817;0.549903
0.507972;0.501656;0.505651;0.505078;0.509961;0.507214;0.504936;0.511667;0.508022;0.510003;0.506027;0.511302;0.510818;0.513247;0.511448;0.514500;0.515871;0.517855;0.515856;0.515744;0.524170;0.520574;0.518555;0.524373;0.519362;0.519389;0.528475;0.530193;0.527408;0.532348;0.530860;0.534815;0.536798;0.535127;0.534688;0.536216;0.536312;0.536612;0.542379;0.546526;0.543328;0.551249;0.549034;0.545725;0.549124;0.552161;0.556238;0.559522;0.554989;0.561923;0.560410;0.567484;0.572022;0.568451;0.579858;0.575118;0.580122;0.584922;0.587552;0.589547;0.591106;0.591220;0.595338;0.604992;0.604266;0.608835;0.610621;0.616424;0.617117;0.618238;0.623181;0.628522;0.631729;0.637132;0.636451;0.644728;0.646443;0.653957;0.653980;0.661666;0.664806;0.672829;0.675691;0.677453;0.678560;0.684748;0.691180;0.695346;0.701296;0.706929;0.712934;0.716293;0.717560;0.728054;0.730792;0.736705;0.742539;0.746606;0.751491;0.756571;0.763015;0.760270;0.766722;0.775102;0.777522;0.784918;0.789542;0.788476;0.792104;0.794655;0.801180;0.806582;0.805223;0.813000;0.813563;0.814456;0.815336;0.819019;0.817677;0.820338;0.820721;0.822288;0.828296;0.822055;0.824026;0.818234;0.820338;0.828306;0.822478;0.819387;0.820951;0.813336;0.816148;0.815081;0.805885;0.811672;0.803995;0.803089;0.801970;0.795560;0.792809;0.789664;0.785275;0.779846;0.778635;0.777660;0.770472;0.769086;0.765431;0.757726;0.755112;0.752888;0.746546;0.746924;0.739899;0.729904;0.729094;0.723985;0.722287;0.720419;0.713176;0.708843;0.700526;0.695662;0.692593;0.694209;0.681606;0.680347;0.674239;0.668094;0.663868;0.657738;0.653856;0.649534;0.645790;0.640240;0.636166;0.632563;0.627465;0.619204;0.616626;0.610677;0.602004;0.603959;0.598644;0.590652;0.588505;0.585393;0.587395;0.578670;0.571368;0.570954;0.566228;0.563808;0.557473;0.552064;0.551239;0.552953;0.545759;0.549429
0.520866;0.519903;0.522648;0.523448;0.526958;0.523466;0.527819;0.527425;0.529565;0.529006;0.533103;0.535510;0.532622;0.535016;0.540836;0.548440;0.546480;0.546550;0.551371;0.549062;0.549614;0.553672;0.554504;0.556697;0.559962;0.559645;0.564426;0.561667;0.565770;0.563093;0.568600;0.567520;0.567635;0.573015;0.571545;0.571372;0.575233;0.572512;0.572842;0.576526;0.572638;0.580141;0.578413;0.581102;0.579710;0.582020;0.580119;0.576288;0.578195;0.578400;0.579482;0.580482;0.579522;0.585661;0.583051;0.580362;0.583929;0.589465;0.584179;0.592859;0.585642;0.587866;0.587919;0.587334;0.590585;0.593988;0.587927;0.596935;0.595983;0.603537;0.607124;0.607349;0.612896;0.609275;0.619204;0.620124;0.628752;0.631367;0.632865;0.637929;0.647242;0.652000;0.656444;0.665904;0.668046;0.678147;0.678696;0.691021;0.697509;0.701151;0.715202;0.718420;0.735561;0.732309;0.742634;0.749597;0.764379;0.765952;0.778897;0.779826;0.795031;0.796848;0.811825;0.814867;0.826628;0.826844;0.837470;0.842481;0.844454;0.858114;0.858544;0.863309;0.869242;0.871985;0.877721;0.880201;0.888284;0.886141;0.887271;0.886422;0.886113;0.882594;0.887564;0.885150;0.880846;0.881696;0.878469;0.878112;0.871338;0.867672;0.866854;0.856280;0.850676;0.846586;0.840087;0.835483;0.825381;0.820273;0.813706;0.809124;0.795580;0.794976;0.784688;0.772835;0.769229;0.758288;0.749771;0.743186;0.735681;0.726814;0.719146;0.711962;0.703823;0.695815;0.692522;0.681128;0.677010;0.671480;0.661612;0.661920;0.645508;0.645974;0.637628;0.633586;0.625306;0.622535;0.618722;0.611950;0.604079;0.604833;0.593863;0.592202;0.584623;0.586046;0.573566;0.577993;0.571180;0.566042;0.569294;0.562656;0.551833;0.557957;0.552027;0.553538;0.549263;0.549919;0.544115;0.539000;0.538151;0.535275;0.532567;0.531963;0.527728;0.528986;0.523954;0.528211;0.530107;0.522593;0.526212;0.521014
0.594186;0.596810;0.603105;0.609792;0.613826;0.630032;0.636464;0.638114;0.650264;0.656756;0.664877;0.671372;0.679591;0.691340;0.693543;0.701267;0.709667;0.718107;0.726821;0.741418;0.744977;0.755399;0.761056;0.770236;0.772875;0.784965;0.792227;0.792913;0.804777;0.806579;0.814862;0.817430;0.825243;0.824955;0.828634;0.831299;0.836768;0.840704;0.837910;0.842717;0.839966;0.839814;0.838769;0.838461;0.834846;0.837304;0.832942;0.824667;0.828747;0.824858;0.818008;0.811904;0.809637;0.800814;0.791109;0.788314;0.780521;0.771186;0.771481;0.758675;0.758072;0.747672;0.738897;0.738193;0.724215;0.716880;0.706721;0.697875;0.693139;0.679170;0.674309;0.670112;0.660136;0.657286;0.651176;0.641358;0.639053;0.627790;0.620060;0.618756;0.611291;0.603875;0.597701;0.595772;0.589387;0.585304;0.580829;0.569993;0.571032;0.570073;0.562333;0.562311;0.560094;0.560546;0.550218;0.554070;0.548666;0.541642;0.542350;0.537648;0.543788;0.543022;0.542473;0.539753;0.536706;0.543398;0.539576;0.534918;0.539120;0.534443;0.545151;0.536883;0.541440;0.542194;0.541266;0.546885;0.546257;0.544611;0.550996;0.552305;0.554728;0.555953;0.554589;0.561672;0.565240;0.562782;0.568494;0.567406;0.570987;0.580721;0.582424;0.584626;0.587807;0.588833;0.592702;0.594205;0.596703;0.600969;0.609557;0.612147;0.613060;0.615355;0.615916;0.622290;0.624146;0.628508;0.629132;0.631102;0.635041;0.637480;0.637988;0.642671;0.641711;0.644877;0.645955;0.646234;0.642189;0.644988;0.650204;0.649256;0.648104;0.647119;0.647588;0.646176;0.646745;0.641415;0.645208;0.641359;0.634327;0.636702;0.630765;0.629066;0.632428;0.625316;0.623650;0.622045;0.613914;0.618229;0.614087;0.607154;0.601633;0.601907;0.600156;0.595404;0.590500;0.587509;0.583642;0.576908;0.578471;0.571059;0.568711;0.570295;0.566823;0.555050;0.555411;0.555321;0.548058;0.546815;0.544391;0.544302
0.560731;0.561554;0.561184;0.570258;0.572089;0.575984;0.576518;0.590035;0.593424;0.592567;0.605163;0.607907;0.613252;0.619361;0.622519;0.631369;0.637627;0.645880;0.651071;0.654009;0.659708;0.667141;0.671290;0.677583;0.683991;0.690296;0.694378;0.699708;0.711368;0.720493;0.719643;0.722872;0.731349;0.734737;0.740374;0.744566;0.754370;0.754932;0.763013;0.766144;0.768071;0.776021;0.778876;0.783069;0.783425;0.792627;0.793954;0.791692;0.800230;0.798827;0.806331;0.809886;0.810748;0.811333;0.812106;0.816417;0.820795;0.818614;0.816603;0.818864;0.821065;0.825200;0.825022;0.823078;0.827442;0.824933;0.827413;0.824348;0.825342;0.826177;0.822521;0.824430;0.819473;0.817837;0.816210;0.811075;0.813425;0.811688;0.804993;0.807980;0.797979;0.797602;0.796486;0.797865;0.787255;0.781078;0.775267;0.773787;0.768693;0.763610;0.755345;0.755341;0.744283;0.740785;0.732630;0.728937;0.721108;0.716875;0.710220;0.704349;0.697215;0.697683;0.682708;0.678360;0.674890;0.667022;0.662319;0.652637;0.652602;0.639294;0.639447;0.632007;0.626742;0.624589;0.612750;0.611518;0.601085;0.601063;0.601190;0.591271;0.590206;0.586120;0.580256;0.576235;0.574654;0.577362;0.568513;0.561047;0.565220;0.561377;0.559083;0.554561;0.553736;0.550325;0.551585;0.553018;0.542286;0.547097;0.547534;0.546874;0.545399;0.546582;0.541572;0.538840;0.546367;0.542183;0.542418;0.538478;0.538568;0.535195;0.539092;0.539084;0.534466;0.531113;0.540091;0.535669;0.539552;0.530526;0.533493;0.534896;0.527305;0.528823;0.529205;0.531207;0.529895;0.531898;0.528982;0.527961;0.524511;0.528895;0.524769;0.523969;0.524131;0.522235;0.522139;0.521208;0.514963;0.521015;0.516500;0.516469;0.517969;0.518797;0.516461;0.515400;0.511903;0.510717;0.513387;0.507246;0.504160;0.505729;0.504787;0.502474;0.503442;0.507369;0.498497;0.499707;0.496354;0.497354;0.501850;0.503065
0.519971;0.515708;0.518794;0.524901;0.523287;0.519236;0.528122;0.524054;0.527106;0.532103;0.526784;0.535882;0.537085;0.538241;0.537238;0.540583;0.547789;0.542492;0.551946;0.547060;0.551363;0.555640;0.553490;0.557470;0.560288;0.562046;0.564235;0.567559;0.572939;0.573527;0.577831;0.576844;0.580441;0.581360;0.591271;0.589063;0.595024;0.595877;0.599250;0.602661;0.604140;0.605641;0.609686;0.611227;0.616223;0.622669;0.626145;0.627882;0.629473;0.634627;0.633083;0.639297;0.642654;0.647559;0.653269;0.654240;0.661569;0.662093;0.663503;0.665606;0.669641;0.673599;0.674134;0.678875;0.676687;0.676292;0.683777;0.682539;0.685221;0.686444;0.694294;0.692346;0.692095;0.692783;0.699076;0.701162;0.699341;0.697544;0.698673;0.693215;0.701512;0.699143;0.701806;0.695605;0.697424;0.692634;0.694128;0.693762;0.692686;0.689721;0.690986;0.684594;0.680862;0.684799;0.677317;0.677584;0.673583;0.667511;0.668814;0.673011;0.662510;0.667403;0.664932;0.664775;0.658415;0.657810;0.655903;0.653157;0.651506;0.656111;0.650696;0.648830;0.649373;0.645294;0.651249;0.649016;0.653161;0.654769;0.651950;0.654946;0.652969;0.655193;0.660165;0.657724;0.663714;0.661262;0.666237;0.665434;0.675044;0.675869;0.677589;0.683120;0.682154;0.684606;0.693326;0.700628;0.698358;0.705063;0.708516;0.712135;0.715291;0.720989;0.724315;0.726499;0.731365;0.733696;0.732262;0.739494;0.744507;0.741188;0.750847;0.749046;0.755394;0.756657;0.754933;0.758237;0.752835;0.756939;0.755739;0.758077;0.755594;0.755191;0.751791;0.746373;0.749491;0.744950;0.748138;0.742180;0.737160;0.733029;0.728714;0.728236;0.722912;0.711467;0.710570;0.708446;0.696989;0.694747;0.689035;0.684951;0.672845;0.670124;0.666257;0.660636;0.652879;0.649541;0.639773;0.637489;0.627960;0.624242;0.614219;0.608321;0.604957;0.600708;0.596809;0.589031;0.587098;0.579785;0.574406;0.574137
0.516848;0.518699;0.522610;0.526026;0.520543;0.524965;0.531083;0.530484;0.532514;0.534268;0.536494;0.536968;0.536575;0.541023;0.541260;0.543322;0.543984;0.548813;0.552318;0.557928;0.550039;0.560971;0.559283;0.560945;0.564312;0.570980;0.573547;0.574223;0.574766;0.578073;0.582907;0.584176;0.589918;0.588422;0.594049;0.596300;0.596437;0.602676;0.601748;0.608672;0.613638;0.616011;0.620558;0.619919;0.626205;0.627867;0.632626;0.636888;0.642853;0.645264;0.645941;0.652130;0.652387;0.656431;0.656664;0.666797;0.665338;0.682581;0.674582;0.678915;0.679872;0.684843;0.685605;0.690860;0.695585;0.701433;0.703922;0.706088;0.706254;0.707002;0.711135;0.713223;0.718503;0.719127;0.723090;0.723708;0.728357;0.731347;0.730224;0.733123;0.731803;0.732955;0.737055;0.734694;0.737926;0.734246;0.740654;0.738374;0.740093;0.739110;0.738070;0.739156;0.737609;0.739864;0.738400;0.738941;0.738419;0.738604;0.735937;0.737171;0.733911;0.732748;0.736795;0.732788;0.733940;0.731717;0.728069;0.731552;0.726575;0.728415;0.730153;0.727546;0.730735;0.725796;0.717771;0.727145;0.722805;0.720970;0.725646;0.721867;0.720334;0.718384;0.710949;0.713673;0.721926;0.712747;0.717181;0.713442;0.713668;0.709481;0.714256;0.712129;0.710456;0.708082;0.707316;0.705133;0.708974;0.704165;0.703357;0.698026;0.700252;0.697145;0.694479;0.694384;0.697068;0.695878;0.694736;0.690752;0.685686;0.692368;0.684245;0.687601;0.685639;0.680267;0.673064;0.675708;0.677207;0.669663;0.665588;0.666158;0.668760;0.662488;0.660891;0.657450;0.655818;0.647504;0.649669;0.645576;0.643183;0.636791;0.636321;0.630116;0.632725;0.626868;0.620849;0.616467;0.616906;0.612631;0.610548;0.600261;0.601061;0.597575;0.590137;0.585852;0.582660;0.580663;0.575641;0.576278;0.567116;0.567412;0.567280;0.562189;0.555140;0.553882;0.553824;0.550870;0.546335;0.543497;0.539254;0.537210
0.519747;0.520342;0.523203;0.518360;0.523640;0.531888;0.529184;0.527782;0.531241;0.536465;0.537181;0.543813;0.539076;0.542526;0.547194;0.554947;0.550275;0.555448;0.562039;0.565498;0.562460;0.568092;0.572004;0.571554;0.577648;0.581726;0.586725;0.585666;0.599122;0.594216;0.599238;0.607273;0.608524;0.614060;0.621052;0.624238;0.630666;0.632121;0.643203;0.643988;0.652067;0.658570;0.662119;0.664948;0.672740;0.679137;0.684548;0.692955;0.695944;0.701788;0.707097;0.716343;0.720382;0.728631;0.734602;0.739669;0.745747;0.753279;0.761271;0.764116;0.768557;0.781236;0.781825;0.782087;0.786707;0.795668;0.794728;0.805426;0.809239;0.812256;0.813656;0.814904;0.818999;0.822826;0.824611;0.828482;0.827395;0.823106;0.828793;0.825319;0.822598;0.825712;0.824997;0.821768;0.819902;0.813553;0.815180;0.808104;0.806155;0.802838;0.802363;0.790170;0.786008;0.784606;0.782465;0.771659;0.769077;0.762335;0.753627;0.747165;0.747953;0.737100;0.732341;0.724010;0.717664;0.712699;0.705603;0.698844;0.693930;0.689058;0.681785;0.677537;0.668047;0.660594;0.665855;0.658545;0.651459;0.647869;0.649357;0.643007;0.636748;0.634823;0.633075;0.632270;0.628273;0.627128;0.626966;0.618987;0.618563;0.618933;0.620792;0.617046;0.620206;0.620689;0.612992;0.616616;0.617793;0.615419;0.615176;0.619994;0.620316;0.623132;0.622290;0.617625;0.625779;0.623935;0.622300;0.619111;0.624795;0.622219;0.621079;0.627945;0.621218;0.626128;0.628675;0.626087;0.624067;0.621055;0.624749;0.621365;0.618609;0.621269;0.617581;0.622264;0.617659;0.617198;0.618356;0.613449;0.611173;0.611084;0.610626;0.602423;0.603774;0.601644;0.593722;0.595445;0.593979;0.594905;0.589358;0.585121;0.579475;0.576169;0.578441;0.574545;0.570035;0.572289;0.563930;0.563759;0.561508;0.555681;0.554195;0.554058;0.549665;0.541658;0.543529;0.541712;0.540365;0.539085;0.532908;0.535860
0.606633;0.616143;0.618025;0.624607;0.633066;0.642050;0.652193;0.659765;0.665547;0.677379;0.690848;0.694379;0.700193;0.712273;0.725010;0.733140;0.738927;0.753037;0.761514;0.774073;0.779564;0.787995;0.799846;0.808178;0.816314;0.820583;0.831316;0.837551;0.849266;0.852543;0.862966;0.860782;0.869910;0.876747;0.879918;0.884775;0.890236;0.891019;0.889881;0.900234;0.899136;0.899199;0.896941;0.897500;0.894012;0.894827;0.895233;0.887154;0.887660;0.885985;0.878018;0.872000;0.869461;0.865807;0.858789;0.850246;0.846459;0.841149;0.832595;0.824188;0.818117;0.808736;0.802550;0.794292;0.784065;0.779462;0.770472;0.759700;0.755733;0.746627;0.740624;0.732001;0.727706;0.717817;0.709277;0.698573;0.694399;0.684100;0.679110;0.673031;0.661871;0.653841;0.649913;0.647063;0.640355;0.634186;0.629233;0.626384;0.616077;0.613168;0.609410;0.604522;0.595454;0.596957;0.589698;0.588462;0.580921;0.580202;0.574293;0.570978;0.572126;0.565375;0.561419;0.560405;0.558641;0.552081;0.552520;0.550520;0.547785;0.548215;0.545809;0.548113;0.545660;0.543613;0.540288;0.541621;0.545668;0.538186;0.538467;0.539477;0.540557;0.537352;0.539586;0.536214;0.536997;0.541353;0.542601;0.537419;0.540220;0.535197;0.541894;0.540526;0.546146;0.542224;0.548565;0.546484;0.545805;0.545144;0.551438;0.551906;0.549825;0.548487;0.558635;0.560028;0.556548;0.557761;0.558818;0.561495;0.556909;0.559531;0.565151;0.560992;0.563099;0.563709;0.562733;0.566710;0.565693;0.570600;0.563014;0.568685;0.566587;0.567230;0.566870;0.562116;0.560486;0.563231;0.566416;0.560942;0.557146;0.554639;0.556278;0.557004;0.555556;0.558732;0.556385;0.556367;0.549227;0.552713;0.553996;0.544507;0.544359;0.538770;0.543706;0.543250;0.537688;0.534814;0.535757;0.535237;0.540498;0.533163;0.532889;0.533449;0.527323;0.524340;0.526769;0.528142;0.525117;0.518234;0.521642;0.521489
0.582542;0.589554;0.590392;0.595415;0.604303;0.613548;0.623885;0.627592;0.630745;0.639723;0.645920;0.655490;0.660120;0.665370;0.680764;0.684174;0.693536;0.702495;0.708843;0.714916;0.719000;0.731928;0.740228;0.746395;0.754302;0.762155;0.768262;0.775485;0.784391;0.780926;0.792464;0.799895;0.805837;0.805069;0.820177;0.818086;0.828377;0.829462;0.832239;0.834244;0.836109;0.840934;0.842564;0.845631;0.849952;0.847290;0.848661;0.843517;0.843151;0.846277;0.849773;0.848599;0.844751;0.840135;0.838231;0.837308;0.840138;0.835017;0.832325;0.829302;0.823478;0.820985;0.817663;0.813459;0.812835;0.806766;0.803630;0.796442;0.791183;0.791293;0.790268;0.789187;0.782263;0.770520;0.776436;0.767239;0.758181;0.756873;0.752921;0.747347;0.737879;0.735365;0.730237;0.730059;0.718704;0.715123;0.714374;0.708653;0.705290;0.698698;0.691848;0.692850;0.686710;0.680626;0.676582;0.670783;0.672692;0.667648;0.662964;0.660606;0.649566;0.646784;0.648542;0.639116;0.639370;0.628329;0.628988;0.624852;0.623261;0.614961;0.614848;0.612052;0.606132;0.601779;0.595138;0.601162;0.587815;0.587580;0.585170;0.588544;0.579501;0.583549;0.578468;0.574521;0.572967;0.576915;0.573087;0.569220;0.563202;0.567509;0.565644;0.558535;0.558945;0.562782;0.555760;0.556818;0.555758;0.552425;0.549634;0.554570;0.550475;0.555018;0.545458;0.546131;0.546150;0.553798;0.546169;0.547215;0.548033;0.541992;0.541638;0.542611;0.542169;0.543572;0.543542;0.538766;0.537255;0.542855;0.541961;0.535341;0.537038;0.537284;0.532710;0.531186;0.535917;0.535716;0.533870;0.534365;0.535407;0.527432;0.528554;0.529942;0.529010;0.531275;0.530118;0.524685;0.525191;0.526652;0.523717;0.520976;0.523545;0.526305;0.525421;0.517146;0.523128;0.519411;0.521004;0.519021;0.517465;0.516586;0.514509;0.514199;0.511541;0.514296;0.510886;0.511230;0.510013;0.514137;0.511902;0.512937
0.503095;0.502636;0.505107;0.503285;0.502360;0.508775;0.502286;0.500583;0.503022;0.504840;0.504692;0.506307;0.501674;0.505942;0.509506;0.509312;0.506557;0.507991;0.510158;0.506058;0.513757;0.511804;0.517906;0.515968;0.511089;0.515897;0.521082;0.517752;0.520371;0.518991;0.522294;0.525617;0.527835;0.525709;0.533005;0.534744;0.537254;0.537318;0.540603;0.545930;0.545074;0.551750;0.548297;0.554906;0.558517;0.562505;0.566767;0.568271;0.571498;0.575667;0.581845;0.585598;0.589447;0.589649;0.595750;0.598790;0.599081;0.605723;0.606455;0.612589;0.616989;0.624443;0.621448;0.624388;0.629520;0.630712;0.634969;0.638064;0.641314;0.644651;0.645901;0.644988;0.653367;0.654852;0.654521;0.653524;0.663021;0.660578;0.660394;0.657934;0.655852;0.658288;0.658892;0.654243;0.661651;0.657217;0.658211;0.656574;0.657729;0.650262;0.653119;0.650547;0.648108;0.643313;0.647775;0.645890;0.640053;0.637294;0.638387;0.633704;0.631256;0.631228;0.633867;0.632256;0.628298;0.627948;0.626913;0.622274;0.627725;0.623991;0.625549;0.621395;0.626730;0.630063;0.626731;0.627490;0.632625;0.630611;0.636820;0.633818;0.644929;0.647963;0.647230;0.653030;0.655129;0.662171;0.671695;0.675938;0.681555;0.688654;0.690557;0.699332;0.704398;0.708295;0.710792;0.724249;0.732448;0.740154;0.742677;0.752621;0.759460;0.762138;0.773416;0.779662;0.780292;0.793363;0.792565;0.803165;0.807822;0.808960;0.818586;0.821604;0.822311;0.831710;0.825435;0.835816;0.839761;0.835600;0.836444;0.834198;0.838698;0.838623;0.830599;0.834076;0.829662;0.826962;0.818601;0.818212;0.816794;0.808570;0.806711;0.801059;0.791060;0.790625;0.780852;0.768450;0.767917;0.761353;0.749153;0.748410;0.734177;0.730035;0.721161;0.711186;0.703276;0.692641;0.683167;0.677084;0.669214;0.662228;0.657697;0.650287;0.637784;0.633578;0.629538;0.614628;0.612925;0.606060;0.595818;0.589409
0.565179;0.568681;0.577486;0.579015;0.585375;0.589104;0.594767;0.601153;0.608289;0.615221;0.621439;0.623665;0.637233;0.638596;0.643433;0.652025;0.654730;0.662187;0.668633;0.676987;0.684361;0.685179;0.695464;0.696333;0.708433;0.712495;0.716587;0.720424;0.724164;0.736812;0.736131;0.742264;0.748128;0.748635;0.757327;0.758271;0.763396;0.763893;0.767367;0.769205;0.773416;0.773589;0.779093;0.777169;0.779217;0.779709;0.780256;0.783397;0.785756;0.785431;0.781050;0.781550;0.775296;0.774175;0.775405;0.773784;0.769835;0.768768;0.764121;0.758049;0.761884;0.754624;0.753406;0.750790;0.753135;0.748083;0.746795;0.743558;0.741871;0.735312;0.732413;0.730699;0.727076;0.729600;0.719920;0.718711;0.714896;0.714488;0.713739;0.705065;0.704401;0.701870;0.701426;0.702906;0.693931;0.688298;0.688107;0.688600;0.683451;0.681412;0.676856;0.679483;0.677441;0.671601;0.673555;0.672331;0.673749;0.670281;0.663908;0.664418;0.661547;0.660200;0.658415;0.657699;0.650241;0.659519;0.650644;0.652034;0.652101;0.646103;0.647751;0.651608;0.644367;0.644350;0.644589;0.645356;0.647928;0.636994;0.639396;0.638839;0.632112;0.638957;0.638520;0.633206;0.629745;0.633099;0.634236;0.629733;0.629101;0.624717;0.626943;0.622965;0.623281;0.618884;0.620123;0.620192;0.622373;0.614413;0.619078;0.613053;0.614948;0.618027;0.609233;0.612414;0.602699;0.607160;0.613867;0.601965;0.602945;0.606226;0.600693;0.600769;0.598695;0.596569;0.594953;0.596407;0.589778;0.593082;0.592029;0.589285;0.584935;0.584716;0.589043;0.583244;0.576428;0.577012;0.577807;0.575240;0.573637;0.572707;0.566755;0.566687;0.567068;0.568516;0.561318;0.565504;0.558297;0.557498;0.555727;0.550942;0.556891;0.544628;0.547222;0.542143;0.540176;0.541999;0.541302;0.534906;0.537604;0.535065;0.532523;0.529871;0.530186;0.529346;0.526778;0.529876;0.527154;0.523120;0.523527;0.516505
0.522852;0.527313;0.529912;0.529395;0.527338;0.530273;0.534783;0.527317;0.537708;0.542510;0.545786;0.539169;0.545342;0.547691;0.547612;0.551537;0.550160;0.551342;0.559409;0.557121;0.556751;0.567163;0.560245;0.566086;0.565629;0.570358;0.575095;0.576274;0.579271;0.577921;0.576504;0.577753;0.579186;0.583056;0.581019;0.589283;0.583342;0.588605;0.586239;0.585944;0.585010;0.591837;0.586622;0.587146;0.589835;0.586003;0.587542;0.586493;0.590959;0.588656;0.589276;0.587094;0.589944;0.587658;0.587938;0.587664;0.587604;0.585420;0.588826;0.589153;0.584415;0.584520;0.590099;0.589081;0.590156;0.590533;0.587914;0.593623;0.588915;0.597174;0.596208;0.594891;0.599675;0.603140;0.609168;0.605068;0.616691;0.619726;0.618974;0.623960;0.633877;0.639517;0.643182;0.648171;0.652698;0.653826;0.667828;0.671110;0.674755;0.682858;0.693693;0.700037;0.705328;0.708395;0.718292;0.727579;0.738131;0.744485;0.751411;0.758566;0.767229;0.774447;0.781567;0.788801;0.793138;0.806580;0.812072;0.811688;0.821372;0.828857;0.830628;0.834279;0.840987;0.845392;0.852330;0.852012;0.851469;0.855405;0.860340;0.857574;0.864906;0.868271;0.864928;0.863472;0.860193;0.864077;0.854509;0.860119;0.851865;0.847979;0.838786;0.840172;0.838793;0.833241;0.828409;0.821525;0.813464;0.811918;0.803345;0.797917;0.787678;0.788508;0.777159;0.768266;0.769095;0.754834;0.748644;0.743409;0.738869;0.731724;0.722296;0.715746;0.706647;0.699074;0.695260;0.682203;0.677556;0.675309;0.664335;0.659079;0.657173;0.652167;0.641835;0.639474;0.635439;0.626099;0.617108;0.617364;0.616831;0.605787;0.603026;0.598043;0.596732;0.590908;0.587352;0.580147;0.577323;0.576397;0.568602;0.570214;0.561797;0.560338;0.561299;0.555913;0.554793;0.548192;0.548187;0.544042;0.544067;0.545005;0.535565;0.528621;0.530416;0.532314;0.529544;0.522745;0.527125;0.525661;0.520334;0.518784
0.570488;0.571616;0.580051;0.587920;0.591696;0.595962;0.599258;0.603613;0.611294;0.617708;0.618326;0.626533;0.633092;0.641382;0.644849;0.650336;0.659307;0.667412;0.672164;0.676191;0.679316;0.691782;0.697031;0.704604;0.705462;0.714602;0.718865;0.722385;0.725085;0.730378;0.738750;0.743034;0.746148;0.751151;0.753491;0.758242;0.764935;0.759631;0.764945;0.766726;0.767185;0.771224;0.770402;0.771674;0.771705;0.764336;0.767895;0.764591;0.765882;0.760017;0.759882;0.758657;0.759308;0.754858;0.743975;0.747646;0.743433;0.743021;0.734772;0.731237;0.727329;0.726008;0.721439;0.716768;0.711401;0.707212;0.702044;0.694931;0.691272;0.692457;0.684290;0.677695;0.672041;0.671766;0.670317;0.662541;0.660398;0.652739;0.644300;0.648053;0.639693;0.640809;0.640331;0.633057;0.627658;0.628496;0.623513;0.626905;0.620535;0.617070;0.616645;0.613796;0.606671;0.606556;0.599586;0.605179;0.600672;0.598460;0.600572;0.596468;0.599919;0.590672;0.591386;0.591964;0.592078;0.593606;0.588428;0.589317;0.587807;0.591989;0.588721;0.592241;0.585539;0.589973;0.592683;0.588451;0.590269;0.591701;0.595385;0.593731;0.595485;0.602252;0.600586;0.596256;0.605392;0.602229;0.606040;0.605397;0.602520;0.612281;0.613880;0.617063;0.616631;0.620956;0.621889;0.622377;0.629272;0.629844;0.630937;0.636147;0.636130;0.641193;0.637988;0.643029;0.642944;0.639946;0.643997;0.644467;0.643481;0.648943;0.649598;0.647451;0.652610;0.654177;0.653255;0.651933;0.651851;0.656128;0.654525;0.653372;0.649179;0.646030;0.649715;0.651139;0.644703;0.642121;0.642329;0.640092;0.634722;0.634630;0.632228;0.623846;0.624481;0.619038;0.617329;0.615003;0.613142;0.608282;0.604525;0.600729;0.600397;0.593371;0.592584;0.590510;0.588424;0.580758;0.573234;0.574228;0.566886;0.564235;0.560989;0.559697;0.553902;0.549644;0.548599;0.544609;0.542260;0.537604;0.532338;0.540603
0.514104;0.510034;0.514786;0.516810;0.511728;0.515594;0.518156;0.515887;0.517794;0.521706;0.518430;0.522015;0.519872;0.528252;0.526016;0.527648;0.531653;0.533027;0.529964;0.531550;0.531312;0.528440;0.534747;0.536009;0.538798;0.538399;0.541467;0.536979;0.541174;0.540371;0.551627;0.542246;0.546569;0.549934;0.547425;0.549388;0.553780;0.549566;0.559629;0.553773;0.553291;0.558919;0.561860;0.563673;0.563659;0.559716;0.567330;0.561263;0.566865;0.569186;0.570797;0.569805;0.572524;0.573946;0.576729;0.573392;0.577265;0.578805;0.582943;0.583176;0.582489;0.587651;0.587143;0.591342;0.590589;0.594041;0.597866;0.603953;0.601088;0.606703;0.608336;0.609850;0.621187;0.616115;0.618887;0.625817;0.632169;0.629314;0.636692;0.642567;0.645252;0.647145;0.653342;0.655714;0.662598;0.665226;0.673592;0.677443;0.684535;0.691582;0.691470;0.696423;0.705262;0.711621;0.716362;0.720025;0.727012;0.732742;0.733929;0.744243;0.752666;0.753873;0.759851;0.763791;0.771140;0.772191;0.776350;0.782070;0.787691;0.791587;0.795806;0.801353;0.806880;0.801975;0.812665;0.812444;0.812738;0.817677;0.817402;0.823449;0.822660;0.825493;0.827296;0.825986;0.825857;0.829752;0.825290;0.827952;0.823393;0.818088;0.817671;0.816140;0.814452;0.816984;0.809948;0.810091;0.806218;0.803426;0.800974;0.797653;0.794372;0.792807;0.782418;0.787357;0.778626;0.768504;0.768722;0.769328;0.764753;0.754265;0.749890;0.745842;0.742458;0.740245;0.736979;0.729164;0.724352;0.718071;0.713314;0.710275;0.704474;0.699420;0.697628;0.686498;0.683631;0.678155;0.678802;0.672325;0.667037;0.661279;0.660646;0.650470;0.648078;0.639939;0.642365;0.633029;0.626452;0.619229;0.618448;0.611169;0.608306;0.603384;0.599373;0.595418;0.588769;0.588402;0.582267;0.577594;0.575601;0.575314;0.565615;0.562760;0.558035;0.559748;0.555934;0.552218;0.549531;0.548462;0.540060;0.537736
0.501381;0.501467;0.504271;0.503566;0.503857;0.503851;0.504434;0.500484;0.509143;0.504182;0.507398;0.508836;0.507155;0.506138;0.509934;0.510183;0.513808;0.509762;0.510972;0.508339;0.511365;0.513402;0.518795;0.522111;0.520601;0.515938;0.523726;0.520461;0.527803;0.529588;0.531183;0.528775;0.536165;0.533593;0.538685;0.541466;0.544674;0.547762;0.550038;0.550797;0.554919;0.559391;0.562957;0.569431;0.574425;0.569310;0.583144;0.584626;0.592012;0.588715;0.599854;0.603390;0.605123;0.609626;0.614190;0.622916;0.625137;0.632397;0.635435;0.636353;0.646016;0.645161;0.652106;0.657501;0.661330;0.667407;0.672801;0.678639;0.679145;0.683367;0.687704;0.693884;0.694735;0.699803;0.698908;0.704001;0.706843;0.709533;0.710564;0.716764;0.716550;0.718471;0.718972;0.721925;0.723862;0.722783;0.728894;0.727145;0.721006;0.725882;0.726760;0.729978;0.725557;0.725886;0.723891;0.725819;0.724357;0.724178;0.724156;0.719714;0.726298;0.725783;0.723786;0.719184;0.719371;0.719847;0.716172;0.713136;0.719742;0.712325;0.713170;0.716984;0.715730;0.712915;0.715797;0.716550;0.711505;0.709120;0.713471;0.711273;0.720164;0.716924;0.718248;0.717770;0.721108;0.718254;0.720576;0.720658;0.719362;0.725669;0.722012;0.720965;0.728440;0.731320;0.733119;0.734881;0.735685;0.733183;0.736869;0.732683;0.738752;0.741102;0.740701;0.740357;0.742979;0.747675;0.742649;0.745781;0.747215;0.748059;0.747803;0.744542;0.743165;0.746815;0.748504;0.746798;0.743464;0.739176;0.737915;0.737637;0.737180;0.737915;0.727076;0.729611;0.720804;0.724572;0.722527;0.717913;0.716080;0.701396;0.703300;0.696937;0.694063;0.689252;0.681727;0.679910;0.671686;0.668942;0.659297;0.653499;0.653343;0.646137;0.641102;0.637120;0.632892;0.624997;0.619700;0.615993;0.609539;0.604984;0.603104;0.590970;0.593140;0.588770;0.580654;0.572960;0.573978;0.567119;0.562158;0.558826
0.543995;0.544432;0.551813;0.553806;0.553116;0.560558;0.563700;0.567056;0.564977;0.569658;0.575520;0.576023;0.585663;0.588003;0.591619;0.592543;0.599750;0.606897;0.605921;0.608760;0.612736;0.620163;0.625527;0.627597;0.634024;0.637738;0.639297;0.646330;0.645765;0.647852;0.655958;0.651345;0.657166;0.660431;0.659876;0.664891;0.666997;0.668238;0.669596;0.673799;0.675774;0.673502;0.677854;0.681615;0.683331;0.678404;0.678879;0.679955;0.677081;0.679490;0.682667;0.682164;0.677322;0.679531;0.679285;0.676009;0.675541;0.671634;0.678080;0.676421;0.669700;0.670034;0.670528;0.667240;0.666898;0.666933;0.661407;0.666299;0.662272;0.661740;0.661619;0.661592;0.652893;0.657601;0.656375;0.653362;0.653246;0.654106;0.658173;0.655595;0.652158;0.647167;0.652050;0.649972;0.649733;0.645995;0.650088;0.650959;0.648763;0.649171;0.649243;0.646850;0.653237;0.648212;0.650423;0.655220;0.654601;0.651986;0.657308;0.654953;0.653343;0.656699;0.654980;0.655118;0.659699;0.659255;0.666395;0.662759;0.662841;0.662612;0.666910;0.666901;0.671073;0.674593;0.669697;0.673568;0.679569;0.674103;0.677043;0.674864;0.676462;0.683024;0.679366;0.684801;0.684063;0.681836;0.685002;0.689071;0.690877;0.689552;0.694394;0.693752;0.696481;0.696047;0.695575;0.700105;0.697290;0.698816;0.698671;0.698786;0.697883;0.697720;0.698929;0.698792;0.704872;0.705378;0.704125;0.700131;0.702296;0.699586;0.701258;0.698914;0.697243;0.698317;0.690961;0.696437;0.695888;0.694710;0.689754;0.685425;0.684568;0.681291;0.677674;0.677495;0.671974;0.668554;0.670398;0.661854;0.665202;0.661536;0.656668;0.651997;0.648944;0.647343;0.639065;0.637974;0.628783;0.628704;0.623096;0.616125;0.618351;0.613254;0.605668;0.604705;0.597900;0.594818;0.589375;0.585865;0.583634;0.576673;0.573506;0.572539;0.566412;0.558565;0.561158;0.550699;0.553059;0.548547;0.541933;0.539868
0.544759;0.541359;0.543471;0.549608;0.550200;0.557466;0.559863;0.564478;0.560299;0.569098;0.570503;0.576558;0.578278;0.587979;0.587019;0.590481;0.595537;0.601043;0.607675;0.606051;0.619062;0.616553;0.621422;0.629065;0.633592;0.638050;0.641351;0.648213;0.652792;0.653858;0.656944;0.661084;0.665925;0.667359;0.675514;0.675155;0.682951;0.690790;0.693440;0.693215;0.701667;0.705733;0.707071;0.713175;0.717230;0.722779;0.718451;0.726332;0.730031;0.731981;0.733096;0.737237;0.742205;0.747580;0.747799;0.750011;0.746181;0.752853;0.760720;0.758183;0.761387;0.763780;0.764296;0.762115;0.766317;0.768019;0.768322;0.772616;0.776514;0.771498;0.773820;0.773225;0.774059;0.771960;0.772148;0.769858;0.772779;0.771183;0.770105;0.771664;0.767662;0.767402;0.768126;0.762092;0.760332;0.749084;0.754075;0.749217;0.745496;0.746399;0.742392;0.742173;0.735474;0.730481;0.728838;0.719880;0.720456;0.717614;0.710573;0.709003;0.699616;0.699224;0.695788;0.689391;0.683525;0.681258;0.677718;0.675285;0.671132;0.662323;0.661137;0.658976;0.652321;0.656635;0.645679;0.646839;0.643391;0.639920;0.636760;0.638570;0.635324;0.636545;0.630222;0.630208;0.626032;0.629501;0.623318;0.621832;0.619054;0.623663;0.619230;0.620206;0.621881;0.621197;0.619501;0.621457;0.619057;0.617332;0.619575;0.620497;0.620752;0.620633;0.615145;0.622325;0.619276;0.616282;0.617014;0.619222;0.619937;0.615564;0.620590;0.619235;0.620714;0.618587;0.617043;0.618461;0.616911;0.614733;0.616234;0.618239;0.611334;0.610277;0.614552;0.608575;0.606806;0.604344;0.600727;0.602008;0.605867;0.592761;0.600426;0.596125;0.591344;0.591194;0.588559;0.584689;0.585039;0.585653;0.576658;0.575521;0.571344;0.571076;0.564887;0.565359;0.561554;0.557627;0.553054;0.554031;0.556889;0.550997;0.545116;0.544178;0.543469;0.538605;0.544344;0.533273;0.531994;0.537087;0.529713;0.531076
0.549102;0.555580;0.555611;0.567443;0.562333;0.568272;0.575782;0.576302;0.580527;0.585575;0.590139;0.596054;0.603843;0.605077;0.606716;0.612703;0.618913;0.624500;0.631012;0.636492;0.632752;0.637718;0.644366;0.649054;0.660443;0.664918;0.669532;0.673193;0.673086;0.680171;0.678871;0.682123;0.684376;0.692315;0.694195;0.699899;0.700337;0.702827;0.704024;0.702045;0.703110;0.708197;0.709201;0.710862;0.712704;0.707145;0.715517;0.708167;0.711933;0.714931;0.715783;0.715759;0.707453;0.710479;0.713168;0.707124;0.700232;0.706433;0.711363;0.702769;0.693252;0.700003;0.693521;0.701186;0.696583;0.696718;0.696508;0.695499;0.692017;0.690401;0.693137;0.684293;0.691094;0.690615;0.689329;0.693958;0.684195;0.692601;0.697484;0.690173;0.691686;0.693413;0.699147;0.691131;0.696425;0.700106;0.700163;0.701372;0.706438;0.701489;0.709664;0.710546;0.714507;0.710934;0.719625;0.724116;0.722448;0.721581;0.726005;0.727516;0.740377;0.733987;0.735635;0.735965;0.743024;0.751796;0.745580;0.749816;0.749333;0.754283;0.750873;0.758622;0.756649;0.758141;0.753292;0.754530;0.757187;0.753833;0.748130;0.753065;0.749715;0.748991;0.751983;0.749105;0.741772;0.735973;0.737623;0.726372;0.727400;0.727743;0.718277;0.716994;0.714314;0.707406;0.701710;0.697094;0.690446;0.683160;0.680683;0.673214;0.669646;0.660816;0.659088;0.652493;0.645194;0.636767;0.631815;0.628822;0.620726;0.617350;0.611161;0.608662;0.603883;0.593870;0.592233;0.585587;0.580472;0.576065;0.571342;0.563162;0.560915;0.558190;0.555421;0.550395;0.547156;0.541464;0.540558;0.540783;0.536771;0.531275;0.526681;0.531976;0.525897;0.527313;0.518919;0.515859;0.519652;0.515860;0.512822;0.511830;0.513114;0.512571;0.509490;0.508150;0.506107;0.508995;0.501869;0.503062;0.498178;0.502405;0.500339;0.499194;0.497771;0.499119;0.498689;0.495536;0.497501;0.501649;0.497436;0.497258
0.529007;0.531954;0.534118;0.533135;0.537399;0.542418;0.546233;0.544222;0.548214;0.544509;0.552638;0.555507;0.556563;0.557863;0.562504;0.565596;0.571145;0.568017;0.573659;0.576409;0.579758;0.589091;0.582601;0.590998;0.594479;0.601746;0.599033;0.604176;0.606837;0.607073;0.612768;0.616563;0.619678;0.620278;0.620486;0.629402;0.631936;0.631364;0.636857;0.640284;0.637304;0.646670;0.645510;0.647678;0.657561;0.654790;0.659787;0.660296;0.662763;0.664427;0.667015;0.667074;0.671575;0.674050;0.671695;0.677404;0.678374;0.684352;0.686832;0.688278;0.686057;0.684924;0.689403;0.686366;0.690164;0.692520;0.687752;0.697948;0.693063;0.699601;0.689868;0.697789;0.692866;0.697621;0.691788;0.689764;0.691644;0.694595;0.688512;0.692362;0.692037;0.693048;0.690421;0.684529;0.686001;0.681845;0.682530;0.679347;0.681431;0.675117;0.676714;0.672221;0.669519;0.670338;0.668973;0.659291;0.663648;0.657582;0.661160;0.658084;0.654157;0.655770;0.649888;0.649709;0.647645;0.648234;0.644957;0.644801;0.638275;0.639108;0.640029;0.639824;0.637721;0.639504;0.635058;0.640315;0.641970;0.640764;0.640221;0.644100;0.640780;0.645298;0.642190;0.647236;0.652948;0.650395;0.659651;0.652986;0.656004;0.661003;0.665450;0.670430;0.672783;0.671278;0.679062;0.679830;0.688399;0.695009;0.692541;0.696220;0.704727;0.706406;0.706550;0.710795;0.715604;0.713969;0.724212;0.727125;0.729403;0.731925;0.735368;0.731866;0.735571;0.734075;0.739058;0.739460;0.740306;0.737665;0.740630;0.736873;0.738296;0.739637;0.740388;0.731224;0.729605;0.732849;0.731500;0.723280;0.721950;0.722954;0.716177;0.712587;0.709816;0.699150;0.699716;0.695006;0.688284;0.679977;0.677584;0.670124;0.669260;0.663692;0.654930;0.653168;0.646464;0.637608;0.629726;0.633002;0.626782;0.619911;0.611224;0.609083;0.609463;0.601367;0.594104;0.587884;0.585054;0.581810;0.577245;0.569800
0.529955;0.529786;0.529859;0.534981;0.534663;0.534452;0.541134;0.546041;0.547095;0.546077;0.549494;0.548444;0.554092;0.553133;0.554732;0.562199;0.563487;0.567349;0.572127;0.572964;0.576833;0.577636;0.585890;0.590481;0.589984;0.589286;0.599796;0.601818;0.603257;0.609014;0.607963;0.612768;0.615217;0.620661;0.629801;0.628498;0.627748;0.633871;0.633651;0.639070;0.642559;0.641956;0.647574;0.644919;0.652952;0.658984;0.659454;0.659890;0.659852;0.666883;0.673310;0.674043;0.679013;0.677105;0.680816;0.683788;0.685135;0.691533;0.691682;0.692824;0.691605;0.699558;0.702314;0.699464;0.702476;0.711435;0.712948;0.715425;0.719775;0.717419;0.723059;0.723572;0.724595;0.725246;0.725841;0.733466;0.733890;0.738273;0.735610;0.735885;0.741372;0.742061;0.751123;0.750174;0.746176;0.753119;0.751419;0.753925;0.755397;0.751691;0.754688;0.762439;0.759981;0.758522;0.762462;0.766737;0.766511;0.766501;0.767164;0.767548;0.765020;0.768941;0.768579;0.770026;0.769420;0.769567;0.770372;0.770141;0.767977;0.770249;0.767355;0.768387;0.765025;0.767611;0.762763;0.767943;0.763207;0.758074;0.758851;0.755960;0.755160;0.754705;0.754678;0.745818;0.746115;0.744219;0.739387;0.730799;0.734486;0.726467;0.722217;0.717949;0.713790;0.711994;0.706959;0.702749;0.697244;0.691811;0.689383;0.691374;0.678601;0.678373;0.674251;0.669124;0.661260;0.658848;0.650557;0.645505;0.643337;0.637078;0.635035;0.632740;0.625516;0.620683;0.616146;0.614194;0.606347;0.606429;0.600350;0.600555;0.596039;0.591413;0.582423;0.585503;0.581122;0.575009;0.569333;0.566459;0.569383;0.563824;0.560909;0.553973;0.553785;0.557092;0.552254;0.551221;0.546407;0.541799;0.542458;0.539602;0.535639;0.536174;0.535601;0.526801;0.530741;0.530357;0.522436;0.523130;0.527727;0.523184;0.521767;0.514922;0.519232;0.519386;0.516980;0.516429;0.511394;0.514704;0.511311;0.512564
0.515895;0.514724;0.516159;0.518997;0.518120;0.518911;0.516687;0.520774;0.526443;0.525998;0.522785;0.529071;0.529285;0.531630;0.529942;0.536909;0.537564;0.539724;0.542661;0.542121;0.542445;0.544717;0.548447;0.551083;0.551618;0.557068;0.559056;0.558384;0.563500;0.561853;0.569113;0.570708;0.571917;0.575353;0.584431;0.582332;0.579037;0.583731;0.586129;0.592480;0.596520;0.598587;0.604248;0.607016;0.608787;0.614919;0.615387;0.622639;0.622629;0.631755;0.629369;0.629485;0.638877;0.640517;0.645409;0.646426;0.648470;0.658464;0.661906;0.664768;0.666566;0.672202;0.673738;0.677461;0.683353;0.683871;0.690667;0.692560;0.696231;0.699673;0.702431;0.706009;0.708769;0.714947;0.709826;0.716667;0.721033;0.722433;0.722195;0.727079;0.727508;0.727028;0.733919;0.734117;0.741391;0.737920;0.742688;0.744109;0.741071;0.740333;0.741562;0.745270;0.747838;0.746533;0.747586;0.744813;0.750797;0.747613;0.747942;0.753239;0.750927;0.751432;0.748549;0.747418;0.746397;0.748956;0.748134;0.750250;0.748171;0.748494;0.751928;0.749936;0.747093;0.749141;0.749405;0.748996;0.744777;0.741363;0.743222;0.744684;0.745270;0.740515;0.743009;0.739370;0.742515;0.739230;0.737317;0.737382;0.736020;0.736342;0.734153;0.732627;0.729869;0.732006;0.731535;0.728609;0.724587;0.727875;0.720929;0.725022;0.717021;0.717232;0.715426;0.714546;0.712743;0.710809;0.705897;0.706412;0.705792;0.702300;0.705178;0.695296;0.690429;0.692713;0.687267;0.692877;0.681258;0.684531;0.683257;0.678431;0.673043;0.664096;0.669723;0.660970;0.661466;0.659986;0.654882;0.653751;0.649384;0.645705;0.643859;0.635647;0.630168;0.633587;0.627996;0.620620;0.618793;0.614495;0.609965;0.609527;0.606726;0.603457;0.596451;0.591367;0.586979;0.586455;0.578362;0.580442;0.575974;0.572826;0.572781;0.563792;0.561441;0.557329;0.555336;0.555391;0.550255;0.544734;0.542751;0.543884
0.537889;0.536770;0.537025;0.539638;0.545929;0.542378;0.550921;0.555226;0.561434;0.558999;0.561837;0.568813;0.565319;0.567091;0.575572;0.577346;0.583154;0.586585;0.592903;0.592461;0.594443;0.601433;0.606199;0.604456;0.605042;0.612404;0.614423;0.613990;0.618767;0.620778;0.631563;0.626671;0.627743;0.637226;0.635220;0.635271;0.640833;0.641236;0.640839;0.641227;0.642872;0.645493;0.648505;0.650916;0.652308;0.649871;0.651079;0.653977;0.650909;0.654402;0.651008;0.648764;0.656033;0.653602;0.651344;0.650322;0.659528;0.659461;0.656109;0.657752;0.658745;0.654797;0.650571;0.652070;0.654058;0.653895;0.653218;0.652628;0.657101;0.657568;0.657882;0.657943;0.658320;0.666715;0.660567;0.661647;0.663467;0.664202;0.664199;0.668419;0.671835;0.675910;0.678317;0.677895;0.679095;0.685305;0.687752;0.692245;0.690672;0.698621;0.698572;0.705963;0.707770;0.707302;0.715893;0.713981;0.717985;0.727810;0.734323;0.730923;0.736420;0.739560;0.742587;0.746259;0.753318;0.761442;0.758698;0.757259;0.760644;0.763591;0.770186;0.770737;0.770189;0.776919;0.776663;0.780968;0.779010;0.782059;0.780383;0.779803;0.779756;0.778089;0.774299;0.775541;0.773744;0.773961;0.772890;0.767900;0.768395;0.761907;0.762060;0.759222;0.753630;0.752912;0.746337;0.745222;0.745295;0.738751;0.736078;0.732245;0.722835;0.723529;0.720809;0.711532;0.705336;0.700832;0.698808;0.690946;0.688061;0.683125;0.682006;0.674205;0.668841;0.665845;0.656641;0.654800;0.649939;0.651600;0.644229;0.640423;0.635166;0.633536;0.628867;0.620082;0.617091;0.613614;0.609729;0.605572;0.602854;0.601265;0.598996;0.590682;0.585772;0.581157;0.579730;0.577253;0.571344;0.566046;0.569872;0.569053;0.562841;0.555641;0.555909;0.557295;0.550713;0.552809;0.549107;0.548545;0.538211;0.544482;0.544135;0.536269;0.535766;0.534722;0.535791;0.529533;0.528502;0.521150;0.523405;0.522287
0.532941;0.534027;0.533997;0.536430;0.542864;0.547953;0.546013;0.552279;0.553587;0.555884;0.560225;0.565384;0.568187;0.565547;0.575552;0.577241;0.575941;0.581705;0.585666;0.589189;0.592535;0.594584;0.601567;0.604520;0.606269;0.614104;0.614410;0.621386;0.625489;0.627538;0.625332;0.636175;0.635723;0.643177;0.642457;0.648081;0.653478;0.657124;0.658423;0.663007;0.663418;0.666507;0.671056;0.678324;0.675200;0.678901;0.679592;0.681101;0.685934;0.691152;0.694794;0.698960;0.701241;0.705079;0.704622;0.707049;0.708289;0.711819;0.719111;0.716268;0.721086;0.715967;0.725834;0.727150;0.728766;0.725453;0.725938;0.726464;0.732061;0.727972;0.737676;0.739580;0.736425;0.742732;0.738564;0.737885;0.736768;0.740228;0.741120;0.742002;0.739343;0.740059;0.740800;0.740365;0.739657;0.739765;0.740172;0.739032;0.739085;0.733237;0.732339;0.737965;0.732169;0.732498;0.731553;0.730134;0.723487;0.725345;0.719910;0.718907;0.718044;0.716813;0.715636;0.714279;0.712662;0.712581;0.709849;0.705310;0.707698;0.705943;0.700806;0.699458;0.698987;0.694585;0.694308;0.698492;0.695338;0.690428;0.689456;0.689237;0.683803;0.688666;0.687234;0.680775;0.677794;0.682291;0.678533;0.674552;0.676006;0.672517;0.675597;0.675722;0.672059;0.671334;0.672387;0.668197;0.666340;0.664815;0.660822;0.661630;0.660865;0.658752;0.661947;0.658542;0.660380;0.657644;0.654844;0.654737;0.647257;0.649861;0.649716;0.649593;0.644832;0.643163;0.640706;0.643138;0.638801;0.633367;0.633932;0.638347;0.631814;0.629909;0.627560;0.620108;0.621107;0.616400;0.616964;0.613914;0.612619;0.607270;0.604215;0.603577;0.597316;0.593865;0.597022;0.589262;0.591221;0.586134;0.582277;0.576621;0.578843;0.576197;0.572196;0.572711;0.565750;0.560896;0.559260;0.555788;0.553626;0.551843;0.547912;0.545768;0.546106;0.543667;0.541769;0.541669;0.536314;0.532643;0.529527;0.530361
0.534888;0.541429;0.546180;0.547418;0.548855;0.547992;0.557390;0.558142;0.561463;0.563417;0.569112;0.569430;0.572652;0.577827;0.580668;0.589803;0.586892;0.591400;0.597414;0.596655;0.603075;0.607578;0.610980;0.615825;0.619638;0.621028;0.625945;0.626511;0.627958;0.633459;0.635887;0.641763;0.646862;0.651260;0.645418;0.655384;0.652662;0.652483;0.658974;0.661204;0.655370;0.662913;0.666959;0.665153;0.671024;0.668445;0.671373;0.668898;0.668094;0.673960;0.670878;0.668284;0.674053;0.667320;0.673460;0.671897;0.673016;0.673362;0.674395;0.670584;0.669464;0.672389;0.673117;0.671510;0.664689;0.673859;0.667694;0.669246;0.668685;0.669124;0.668667;0.667580;0.666340;0.666710;0.667312;0.667301;0.667725;0.668689;0.668039;0.663960;0.668502;0.665663;0.666005;0.671289;0.668618;0.670190;0.672071;0.670212;0.669942;0.672482;0.668118;0.674774;0.666165;0.674551;0.677139;0.676055;0.675790;0.676061;0.677509;0.678229;0.683128;0.682722;0.676913;0.686963;0.685809;0.681404;0.680793;0.686257;0.688068;0.690366;0.689648;0.690406;0.692079;0.693507;0.696859;0.695376;0.696952;0.696423;0.698329;0.696662;0.693978;0.692736;0.698911;0.697615;0.701622;0.702517;0.696235;0.699467;0.700157;0.700372;0.700565;0.700972;0.702354;0.701235;0.702480;0.700729;0.701574;0.701084;0.703498;0.702124;0.702929;0.699453;0.701778;0.704139;0.693856;0.696946;0.694103;0.695207;0.691834;0.693982;0.689266;0.690134;0.690933;0.688701;0.676971;0.682446;0.680815;0.675817;0.675563;0.672663;0.664261;0.665281;0.666663;0.660457;0.657507;0.653913;0.650906;0.645362;0.648091;0.643761;0.640409;0.636521;0.631297;0.627929;0.623246;0.617468;0.612569;0.609802;0.605904;0.602201;0.599237;0.595211;0.593916;0.594544;0.586099;0.578947;0.576732;0.576896;0.566755;0.564450;0.562116;0.559535;0.553759;0.549858;0.551514;0.543622;0.540323;0.541196;0.535458;0.528474
0.565482;0.569721;0.576908;0.581671;0.582729;0.588870;0.596098;0.601281;0.606672;0.614607;0.620570;0.624206;0.630437;0.638692;0.637809;0.650014;0.649496;0.660240;0.664860;0.676005;0.679056;0.689339;0.689770;0.697510;0.707598;0.712389;0.721378;0.721912;0.729462;0.735350;0.735980;0.750133;0.755703;0.756180;0.758904;0.763151;0.771292;0.773419;0.776736;0.785105;0.784021;0.785815;0.796502;0.791878;0.791230;0.801649;0.797719;0.803778;0.807269;0.802808;0.799003;0.802557;0.808868;0.807939;0.802605;0.805204;0.809405;0.805955;0.805383;0.800259;0.802741;0.796142;0.798672;0.793052;0.795208;0.795781;0.788016;0.792427;0.789780;0.786540;0.782704;0.779833;0.777886;0.777403;0.770444;0.767617;0.763439;0.762536;0.760521;0.757876;0.745050;0.748517;0.746428;0.740503;0.741086;0.729242;0.727286;0.726677;0.720897;0.719568;0.710700;0.705252;0.704136;0.694030;0.692261;0.686299;0.684183;0.679044;0.675902;0.673561;0.666685;0.667669;0.661994;0.656562;0.651212;0.646819;0.643636;0.642696;0.639608;0.631279;0.627404;0.625080;0.616589;0.617049;0.617496;0.611302;0.607701;0.603911;0.604479;0.604245;0.597790;0.598151;0.590099;0.593287;0.595757;0.588918;0.589306;0.583015;0.585383;0.587462;0.581901;0.586202;0.577405;0.584944;0.578962;0.581946;0.572354;0.571175;0.572985;0.572875;0.574700;0.570876;0.572745;0.569751;0.568868;0.573095;0.570581;0.567434;0.569127;0.564539;0.566556;0.564793;0.565305;0.560943;0.562743;0.571214;0.565086;0.565226;0.562363;0.564273;0.561021;0.564379;0.560168;0.558766;0.560398;0.563469;0.554442;0.557811;0.549994;0.552275;0.551238;0.550264;0.549056;0.546976;0.551007;0.546564;0.541954;0.545002;0.541814;0.540801;0.536882;0.534332;0.532427;0.536904;0.531390;0.532753;0.531256;0.535260;0.526103;0.522508;0.525757;0.524648;0.523779;0.522739;0.524061;0.516892;0.519293;0.519529;0.516088;0.512908
0.533138;0.530160;0.537033;0.532646;0.536501;0.540567;0.546892;0.543116;0.546846;0.550403;0.549015;0.558674;0.558014;0.557610;0.566050;0.563721;0.572357;0.574248;0.578290;0.578294;0.582517;0.586101;0.590641;0.593914;0.600082;0.601472;0.604015;0.608751;0.613819;0.607834;0.612850;0.623324;0.627668;0.621782;0.631635;0.633092;0.636890;0.639255;0.643428;0.644733;0.648614;0.651277;0.647793;0.657681;0.663233;0.663318;0.661534;0.666746;0.669354;0.669633;0.671817;0.672414;0.677186;0.680738;0.682376;0.681401;0.687781;0.687118;0.688023;0.689535;0.691034;0.698069;0.696550;0.695967;0.689114;0.698502;0.699070;0.698694;0.701939;0.696946;0.702739;0.701559;0.695075;0.699477;0.703815;0.698236;0.698348;0.691115;0.693388;0.692584;0.692015;0.695435;0.692045;0.686129;0.689097;0.686300;0.681236;0.676481;0.679060;0.673673;0.679820;0.667049;0.664515;0.665160;0.662663;0.658006;0.658499;0.653660;0.649089;0.647153;0.646589;0.643604;0.638562;0.636313;0.635689;0.628323;0.631464;0.632420;0.625514;0.627115;0.630450;0.625369;0.621862;0.626889;0.622488;0.624366;0.621204;0.621471;0.620523;0.620818;0.629456;0.624318;0.626413;0.629062;0.628614;0.639756;0.637713;0.636044;0.642424;0.641297;0.648517;0.652652;0.656327;0.658056;0.659821;0.666470;0.666847;0.669221;0.678038;0.679983;0.680732;0.682281;0.695651;0.693058;0.698062;0.702613;0.707777;0.710603;0.707685;0.715010;0.715762;0.720048;0.717566;0.718035;0.724794;0.721202;0.725939;0.726723;0.728805;0.722549;0.721813;0.722191;0.720429;0.718849;0.717768;0.716889;0.715453;0.711927;0.702331;0.705849;0.698828;0.697255;0.694020;0.688013;0.684755;0.674044;0.668712;0.666744;0.663669;0.660174;0.650599;0.652050;0.644031;0.638953;0.627802;0.629761;0.627596;0.614812;0.616159;0.605472;0.599571;0.595328;0.590529;0.586033;0.579329;0.579519;0.567221;0.568557;0.563146;0.557332
0.505727;0.509028;0.512729;0.512996;0.513977;0.511678;0.514679;0.511995;0.519960;0.513212;0.515474;0.517669;0.517020;0.514625;0.519604;0.522605;0.519751;0.523345;0.530559;0.526820;0.528607;0.530475;0.534005;0.536028;0.536576;0.539349;0.542895;0.547360;0.547822;0.549530;0.553481;0.559198;0.560134;0.563282;0.567460;0.564256;0.573569;0.576443;0.577210;0.585572;0.590470;0.596377;0.599267;0.600553;0.608725;0.613620;0.616351;0.624710;0.628763;0.633220;0.642037;0.648252;0.650742;0.654866;0.658575;0.665713;0.674134;0.684201;0.683340;0.692540;0.699802;0.699987;0.705568;0.715247;0.722712;0.725349;0.734103;0.736897;0.743256;0.743561;0.751463;0.751178;0.757248;0.760088;0.766750;0.768416;0.771472;0.777580;0.781834;0.777684;0.783729;0.787450;0.795603;0.790616;0.790776;0.796088;0.792481;0.797529;0.800967;0.802366;0.802387;0.801556;0.802374;0.799439;0.794524;0.799315;0.797900;0.795131;0.799039;0.794399;0.795894;0.794297;0.789387;0.793586;0.788864;0.787845;0.786254;0.780614;0.784271;0.775902;0.776988;0.775865;0.774731;0.776072;0.767472;0.766801;0.762979;0.761082;0.760063;0.753717;0.752023;0.750321;0.748843;0.740273;0.742051;0.738263;0.735285;0.732423;0.735039;0.729117;0.727563;0.723659;0.720102;0.715398;0.714020;0.707720;0.704802;0.699859;0.701043;0.699322;0.695399;0.694691;0.682221;0.683173;0.684683;0.676059;0.672252;0.671793;0.669718;0.664159;0.662614;0.660035;0.657501;0.649078;0.647267;0.646479;0.638173;0.642780;0.638837;0.635060;0.628909;0.626305;0.620991;0.621913;0.621687;0.615114;0.613523;0.608985;0.602594;0.603777;0.596406;0.596523;0.592827;0.593978;0.587834;0.586586;0.584219;0.584257;0.577031;0.574049;0.575863;0.569433;0.565127;0.564602;0.562189;0.556546;0.549739;0.553848;0.545954;0.549913;0.542497;0.542331;0.542031;0.537772;0.537604;0.534549;0.534031;0.533457;0.531564;0.532971
0.559705;0.556554;0.557559;0.561724;0.567517;0.573287;0.577156;0.574401;0.582931;0.591426;0.594359;0.598790;0.607811;0.613529;0.614523;0.617791;0.622809;0.628796;0.637283;0.639211;0.647162;0.646881;0.661551;0.661777;0.667130;0.670899;0.676283;0.682234;0.687374;0.691210;0.706056;0.703063;0.706727;0.713284;0.721011;0.721283;0.726564;0.735908;0.733588;0.743037;0.741702;0.750183;0.749199;0.756046;0.755116;0.754912;0.766454;0.764775;0.769355;0.770664;0.773437;0.774592;0.779908;0.779300;0.780134;0.787514;0.780378;0.787735;0.792356;0.788579;0.789690;0.793259;0.791808;0.799621;0.795869;0.796659;0.795926;0.798031;0.793830;0.793700;0.794914;0.796605;0.796562;0.795573;0.796484;0.789732;0.790104;0.791178;0.788776;0.786316;0.785656;0.783882;0.780563;0.779580;0.780491;0.778107;0.776496;0.775317;0.769027;0.767021;0.760365;0.759160;0.758982;0.762043;0.751555;0.751213;0.746506;0.742962;0.737001;0.736323;0.731817;0.728810;0.727221;0.719489;0.714231;0.714982;0.712273;0.703879;0.702885;0.702982;0.694028;0.694010;0.684018;0.683871;0.678436;0.673135;0.672136;0.668557;0.658277;0.658962;0.653904;0.648958;0.644766;0.648263;0.640351;0.637002;0.630691;0.623577;0.624379;0.626047;0.615049;0.611889;0.607388;0.605786;0.598951;0.597763;0.595591;0.589828;0.586270;0.583979;0.580782;0.576037;0.571215;0.565971;0.571627;0.567141;0.563871;0.557391;0.553496;0.550439;0.549152;0.550672;0.541134;0.542527;0.539041;0.536053;0.536916;0.530936;0.529352;0.529919;0.528168;0.524682;0.521407;0.520953;0.522214;0.515536;0.515554;0.513422;0.510524;0.511369;0.504728;0.508300;0.509723;0.505783;0.508761;0.505161;0.501897;0.502470;0.498824;0.503412;0.501289;0.506997;0.498030;0.500052;0.501504;0.501315;0.500270;0.499007;0.496704;0.495957;0.499033;0.499796;0.496671;0.494402;0.497254;0.496949;0.492405;0.498080;0.497523;0.493028
0.551333;0.555796;0.560118;0.563242;0.563230;0.564917;0.574154;0.579318;0.581928;0.582305;0.587725;0.591191;0.600640;0.604864;0.608575;0.612953;0.615442;0.623757;0.623488;0.629041;0.634328;0.640128;0.636687;0.646300;0.652299;0.653370;0.663737;0.662062;0.669287;0.678476;0.675652;0.675666;0.684210;0.680553;0.689150;0.691131;0.688814;0.689744;0.690888;0.696369;0.693494;0.693624;0.695955;0.696479;0.690504;0.696696;0.698645;0.693455;0.690515;0.692904;0.690834;0.684716;0.682260;0.681072;0.683990;0.683229;0.679314;0.677819;0.675139;0.672732;0.673374;0.668826;0.668141;0.665856;0.664650;0.664673;0.661916;0.653394;0.656235;0.654568;0.657225;0.654347;0.651597;0.651722;0.652581;0.653934;0.651532;0.652955;0.655163;0.650023;0.651563;0.660981;0.657810;0.655689;0.660421;0.659392;0.660254;0.669517;0.669574;0.672053;0.678106;0.675911;0.677877;0.684021;0.687929;0.693809;0.693999;0.701949;0.704499;0.708221;0.712623;0.718919;0.719616;0.723633;0.728469;0.738235;0.733538;0.733581;0.741655;0.744546;0.743863;0.749045;0.753332;0.754917;0.756049;0.758124;0.758648;0.758868;0.761189;0.754618;0.757615;0.757118;0.755389;0.755880;0.756872;0.754291;0.748246;0.744998;0.745088;0.746990;0.739805;0.741361;0.732273;0.730648;0.729602;0.724890;0.721154;0.710378;0.704853;0.708609;0.699105;0.694694;0.689252;0.682518;0.680734;0.675859;0.670637;0.664200;0.661627;0.657187;0.644773;0.641467;0.640188;0.636762;0.627634;0.627495;0.621256;0.616320;0.612420;0.606731;0.601001;0.600709;0.597691;0.593379;0.591160;0.585917;0.578848;0.579908;0.573229;0.566266;0.564035;0.561985;0.561010;0.560244;0.554765;0.552910;0.546765;0.549657;0.548412;0.547423;0.543875;0.534687;0.536384;0.531302;0.530498;0.532297;0.527673;0.527687;0.527813;0.519542;0.519293;0.521063;0.517225;0.519612;0.518148;0.516467;0.515711;0.513187;0.509706;0.511098
0.547420;0.550592;0.558478;0.557833;0.563870;0.566405;0.569554;0.574570;0.576601;0.581677;0.583004;0.596419;0.596107;0.598852;0.605607;0.611786;0.613669;0.615672;0.626686;0.629030;0.635109;0.634956;0.640191;0.647864;0.645572;0.655339;0.655929;0.658662;0.662901;0.669611;0.669258;0.672244;0.674226;0.675808;0.681469;0.686378;0.682148;0.688890;0.688865;0.693194;0.691293;0.690020;0.692676;0.689136;0.694301;0.692922;0.696629;0.695068;0.688781;0.687414;0.687812;0.683720;0.681565;0.684775;0.682868;0.679716;0.673807;0.673281;0.669126;0.668748;0.663168;0.659775;0.658880;0.657218;0.652820;0.648951;0.644981;0.644789;0.644124;0.639810;0.634600;0.630163;0.632109;0.628889;0.624818;0.623160;0.621145;0.617410;0.613495;0.609175;0.608256;0.605009;0.606090;0.603364;0.601511;0.595961;0.596945;0.595936;0.591985;0.594209;0.586823;0.591591;0.587849;0.590510;0.587217;0.585350;0.587224;0.583484;0.586996;0.585234;0.590223;0.583401;0.583495;0.582588;0.587452;0.590005;0.591074;0.589425;0.591916;0.597378;0.590990;0.597096;0.601830;0.604432;0.597853;0.605075;0.607865;0.612139;0.613731;0.614726;0.615038;0.626499;0.628841;0.631606;0.637067;0.641776;0.638497;0.647543;0.655078;0.654239;0.660743;0.662934;0.669905;0.671451;0.681190;0.679806;0.690415;0.693707;0.696101;0.697681;0.708021;0.707777;0.712311;0.720256;0.722142;0.719428;0.725372;0.734178;0.728732;0.740242;0.737028;0.736684;0.738380;0.747664;0.748328;0.745342;0.745085;0.749163;0.747707;0.744054;0.746068;0.740496;0.741554;0.739025;0.741773;0.735059;0.737018;0.726817;0.724178;0.721894;0.712090;0.712079;0.708505;0.698660;0.700804;0.690648;0.691016;0.682600;0.680970;0.670681;0.670250;0.658663;0.652425;0.652508;0.644916;0.642910;0.630901;0.623103;0.621374;0.614369;0.608232;0.607154;0.600826;0.595136;0.586472;0.583611;0.578062;0.574724;0.571793;0.565671
0.502705;0.505230;0.503360;0.505499;0.512719;0.507395;0.511312;0.510327;0.509686;0.509574;0.508647;0.505004;0.512634;0.508510;0.509823;0.512649;0.512212;0.505884;0.510483;0.509611;0.512999;0.515143;0.511756;0.511834;0.516249;0.519676;0.515076;0.520345;0.514847;0.517897;0.519495;0.525086;0.528582;0.517737;0.522010;0.525147;0.529947;0.526709;0.526636;0.529154;0.529986;0.529044;0.528305;0.536503;0.531486;0.535878;0.535408;0.535136;0.542261;0.539486;0.542584;0.543852;0.546514;0.549038;0.548028;0.554170;0.555189;0.555141;0.555455;0.558452;0.558945;0.558995;0.559887;0.570424;0.571505;0.571652;0.576173;0.576556;0.587247;0.581472;0.586454;0.590793;0.591674;0.594694;0.602805;0.608581;0.604614;0.606255;0.613646;0.618519;0.625621;0.624955;0.628453;0.636099;0.633542;0.641942;0.650545;0.657525;0.660159;0.666617;0.671327;0.676777;0.681353;0.684668;0.691665;0.700519;0.699961;0.707910;0.715159;0.718511;0.724646;0.727010;0.736843;0.745203;0.744238;0.754615;0.759578;0.759578;0.766098;0.769861;0.777326;0.778753;0.787349;0.787377;0.791444;0.795368;0.799533;0.802942;0.803732;0.811815;0.808909;0.810477;0.813234;0.816795;0.816315;0.820634;0.818022;0.822432;0.823332;0.819891;0.820289;0.819087;0.824877;0.820508;0.818591;0.821648;0.820276;0.817627;0.815768;0.810524;0.812611;0.804259;0.809216;0.804595;0.807167;0.797712;0.794294;0.795254;0.793650;0.791679;0.784511;0.783784;0.780977;0.771130;0.776274;0.766951;0.767590;0.755010;0.753524;0.750510;0.747103;0.745176;0.737098;0.729447;0.725666;0.719679;0.718276;0.707248;0.706896;0.704045;0.697465;0.689590;0.682004;0.676933;0.673206;0.663145;0.658964;0.651956;0.652360;0.643128;0.636822;0.631780;0.626469;0.621270;0.613095;0.612427;0.600963;0.598976;0.598882;0.589015;0.584374;0.576572;0.569573;0.566316;0.566538;0.564771;0.559040;0.554458;0.551416;0.543131
0.514780;0.514639;0.510833;0.513939;0.511377;0.514658;0.518014;0.518781;0.525217;0.522203;0.520975;0.526016;0.524476;0.527151;0.529202;0.528344;0.527527;0.536752;0.540537;0.540046;0.541338;0.542494;0.542194;0.540140;0.546885;0.551948;0.549761;0.552839;0.556057;0.555962;0.559048;0.565721;0.563558;0.570080;0.571457;0.573059;0.570771;0.579635;0.580474;0.583293;0.589082;0.588031;0.595419;0.595492;0.595667;0.604159;0.602903;0.608181;0.615057;0.612450;0.622172;0.623544;0.626648;0.625840;0.631626;0.638405;0.637315;0.641114;0.644997;0.650444;0.652898;0.655522;0.658722;0.666142;0.669963;0.676575;0.673362;0.680589;0.686161;0.693333;0.697450;0.698825;0.700119;0.697593;0.707020;0.705226;0.714553;0.714378;0.723702;0.722815;0.727108;0.732117;0.731211;0.736305;0.741564;0.738806;0.743546;0.746683;0.752229;0.754672;0.753551;0.755996;0.760018;0.765449;0.765571;0.768015;0.769771;0.772407;0.772667;0.776074;0.774749;0.779534;0.784383;0.785051;0.780754;0.784283;0.785558;0.788508;0.789615;0.784298;0.787871;0.787549;0.783057;0.789367;0.786019;0.791319;0.787301;0.787189;0.787950;0.784634;0.784196;0.782515;0.783279;0.776064;0.778918;0.776017;0.774708;0.775217;0.772832;0.763028;0.766333;0.763027;0.764511;0.758080;0.754476;0.749701;0.745382;0.742277;0.737284;0.735085;0.733477;0.726697;0.724453;0.724595;0.716051;0.713644;0.708481;0.706625;0.699957;0.693365;0.690683;0.687812;0.689040;0.679967;0.672613;0.673500;0.665133;0.666697;0.661787;0.655440;0.649518;0.653051;0.645612;0.642057;0.633197;0.633083;0.628873;0.628023;0.620185;0.615670;0.614429;0.612384;0.609248;0.602992;0.598680;0.602123;0.593996;0.592843;0.583987;0.577309;0.584293;0.575947;0.571347;0.570918;0.567511;0.566122;0.564702;0.558280;0.557935;0.551799;0.554504;0.546066;0.547138;0.548071;0.541959;0.541524;0.531566;0.535564;0.530523;0.531457
0.543339;0.548110;0.548598;0.555960;0.557904;0.561884;0.566169;0.570113;0.573256;0.573126;0.576587;0.577297;0.582410;0.591788;0.594176;0.596851;0.598735;0.608428;0.612238;0.615105;0.619661;0.621410;0.627318;0.626728;0.632075;0.634157;0.632597;0.643608;0.652261;0.651061;0.654967;0.656003;0.656370;0.662505;0.662664;0.666488;0.668037;0.668987;0.672769;0.676282;0.676596;0.672109;0.673083;0.677034;0.678915;0.672059;0.683141;0.674041;0.675529;0.675040;0.670047;0.672034;0.668190;0.675088;0.665006;0.665406;0.666696;0.658322;0.659479;0.659392;0.656796;0.655561;0.652210;0.651521;0.647531;0.642335;0.641131;0.641454;0.637625;0.631191;0.632924;0.631008;0.622899;0.620958;0.622040;0.618098;0.610364;0.612504;0.613157;0.607293;0.607787;0.602533;0.602127;0.597141;0.594540;0.594154;0.591720;0.589800;0.587611;0.585164;0.586883;0.583887;0.578801;0.576940;0.580609;0.578255;0.576792;0.573606;0.571836;0.569743;0.574967;0.574362;0.574134;0.571782;0.573226;0.572613;0.576970;0.573904;0.576691;0.573114;0.579303;0.583883;0.582103;0.587808;0.584358;0.588801;0.591682;0.590534;0.595481;0.601778;0.601238;0.608666;0.615228;0.614508;0.623197;0.624038;0.634569;0.635529;0.644854;0.653741;0.654242;0.662721;0.669563;0.677318;0.679893;0.685905;0.693071;0.702612;0.697448;0.711301;0.719775;0.723163;0.731330;0.729728;0.735202;0.745497;0.746121;0.756513;0.757065;0.760341;0.764053;0.768188;0.768484;0.779616;0.778451;0.779213;0.785763;0.778596;0.779779;0.785742;0.784041;0.779991;0.780226;0.779098;0.774183;0.772639;0.768724;0.772004;0.765814;0.762333;0.752906;0.748625;0.748172;0.741167;0.736944;0.725277;0.723972;0.718612;0.711051;0.702706;0.697493;0.684146;0.683971;0.677732;0.664382;0.670700;0.656205;0.652496;0.642289;0.640047;0.629120;0.623740;0.614933;0.611994;0.602265;0.599503;0.590246;0.589239;0.585543;0.578017
0.534002;0.539222;0.542728;0.542132;0.547884;0.550241;0.553217;0.555353;0.556358;0.562801;0.562859;0.566512;0.580663;0.574353;0.577635;0.581143;0.584562;0.591326;0.591358;0.589858;0.596183;0.602055;0.604721;0.608919;0.614193;0.613349;0.609118;0.618269;0.625182;0.618064;0.627191;0.630590;0.630737;0.628914;0.631436;0.639700;0.638557;0.638087;0.641191;0.642919;0.639529;0.648105;0.644167;0.643786;0.643715;0.647684;0.643172;0.644596;0.640933;0.643361;0.645346;0.641066;0.642586;0.642905;0.641028;0.637149;0.634427;0.633117;0.633452;0.630997;0.631371;0.626500;0.626188;0.620678;0.617706;0.622875;0.616234;0.613434;0.613327;0.616658;0.607367;0.605239;0.608150;0.603814;0.597065;0.597671;0.596123;0.599436;0.593371;0.594152;0.585147;0.591670;0.585923;0.590679;0.588840;0.583525;0.581867;0.580193;0.581115;0.579530;0.576866;0.581893;0.576352;0.575727;0.575928;0.579231;0.575164;0.577813;0.577560;0.579641;0.578984;0.575969;0.578803;0.585509;0.577692;0.586364;0.579016;0.588685;0.584624;0.595281;0.589502;0.594790;0.602381;0.599254;0.597968;0.606148;0.612358;0.610206;0.617436;0.618925;0.625427;0.631865;0.633671;0.640419;0.642852;0.649397;0.655115;0.658717;0.667289;0.675239;0.678940;0.684461;0.695090;0.702484;0.705826;0.713944;0.717869;0.721697;0.732840;0.738139;0.741321;0.748413;0.749121;0.761616;0.765883;0.774852;0.776834;0.779694;0.783116;0.788815;0.789948;0.794044;0.798490;0.803959;0.802620;0.799382;0.806608;0.807910;0.807573;0.805030;0.806981;0.801032;0.802011;0.799887;0.797953;0.797865;0.791110;0.785901;0.784284;0.782162;0.771010;0.771315;0.767163;0.761029;0.753926;0.747998;0.737485;0.730479;0.722688;0.716798;0.709918;0.705036;0.701754;0.688521;0.683307;0.676092;0.668587;0.665549;0.653597;0.641836;0.637125;0.629255;0.621998;0.622628;0.612942;0.611678;0.598540;0.593895;0.589319;0.582590
0.499050;0.499967;0.502422;0.502112;0.503898;0.497287;0.505529;0.498260;0.503038;0.503940;0.505262;0.502823;0.498744;0.504778;0.503383;0.501272;0.507347;0.504897;0.507591;0.501873;0.510126;0.508793;0.510051;0.508885;0.514322;0.513253;0.512151;0.516460;0.511315;0.517882;0.514452;0.518797;0.517683;0.515674;0.519179;0.520289;0.519355;0.522026;0.530934;0.526415;0.533943;0.528247;0.534560;0.531955;0.535953;0.533334;0.537199;0.541059;0.549184;0.543799;0.545251;0.552572;0.549608;0.555597;0.553050;0.557557;0.560082;0.562110;0.562513;0.569179;0.568560;0.572604;0.572349;0.576949;0.580401;0.580267;0.585087;0.585622;0.589192;0.584753;0.590379;0.591370;0.592362;0.595488;0.597803;0.596175;0.600438;0.596373;0.601036;0.601530;0.604734;0.603339;0.601579;0.608739;0.604801;0.601602;0.605339;0.604203;0.609223;0.606700;0.610982;0.608880;0.613363;0.605554;0.612180;0.611114;0.612880;0.610426;0.617066;0.613605;0.611506;0.621621;0.616914;0.617634;0.619377;0.626862;0.625907;0.627925;0.629076;0.634648;0.638398;0.638794;0.642453;0.644316;0.647801;0.648768;0.659636;0.659984;0.666336;0.672035;0.676157;0.680520;0.684477;0.690629;0.701138;0.703938;0.715172;0.716289;0.728355;0.734152;0.739140;0.746475;0.759954;0.761131;0.766159;0.779142;0.784226;0.792846;0.801405;0.812041;0.817715;0.825217;0.834488;0.838002;0.845078;0.853746;0.849384;0.863348;0.866743;0.872105;0.876040;0.880820;0.887393;0.886142;0.892584;0.890191;0.890056;0.895149;0.896572;0.893024;0.891195;0.890971;0.889150;0.888891;0.880917;0.881177;0.874142;0.869955;0.864207;0.865462;0.856537;0.844873;0.844860;0.836345;0.826856;0.820528;0.812011;0.800789;0.796718;0.786049;0.775229;0.767893;0.754648;0.752599;0.738942;0.733507;0.714333;0.708497;0.703919;0.697842;0.683312;0.677365;0.668691;0.656722;0.649505;0.647569;0.636882;0.628515;0.618925;0.614686
