Digestibility
66.60504949
66.60504949
66.60504949
66.60504949
60.66722835
60.66722835
60.66722835
60.66722835
47.78715809
47.78715809
47.78715809
47.78715809
72.87231168
72.87231168
72.87231168
72.87231168
76.96398547
76.96398547
76.96398547
76.96398547
46.11946663
46.11946663
46.11946663
46.11946663
53.62599025
53.62599025
53.62599025
53.62599025
65.72823109
65.72823109
65.72823109
65.72823109
29.29870799
29.29870799
29.29870799
29.29870799
8.323978902
8.323978902
8.323978902
8.323978902
69.4434464
69.4434464
69.4434464
69.4434464
57.23164789
57.23164789
57.23164789
57.23164789
38.65724347
38.65724347
38.65724347
38.65724347
55.63603749
55.63603749
55.63603749
55.63603749
59.62843338
59.62843338
59.62843338
59.62843338
38.52962088
38.52962088
38.52962088
38.52962088
49.50549692
49.50549692
49.50549692
49.50549692
60.54229666
60.54229666
60.54229666
60.54229666
47.49177059
47.49177059
47.49177059
47.49177059
37.65908523
37.65908523
37.65908523
37.65908523
56.66364996
56.66364996
56.66364996
56.66364996
59.29698297
59.29698297
59.29698297
59.29698297
63.59498449
63.59498449
63.59498449
63.59498449
40.75919504
40.75919504
40.75919504
40.75919504
50.42524158
50.42524158
50.42524158
50.42524158
47.5937487
47.5937487
47.5937487
47.5937487
35.63688987
35.63688987
35.63688987
35.63688987
73.57529797
73.57529797
73.57529797
73.57529797
54.31992137
54.31992137
54.31992137
54.31992137
64.4034055
64.4034055
64.4034055
64.4034055
50.99161274
50.99161274
50.99161274
50.99161274
51.80056124
51.80056124
51.80056124
51.80056124
17.63221936
17.63221936
17.63221936
17.63221936
23.46863563
23.46863563
23.46863563
23.46863563
47.55284675
47.55284675
47.55284675
47.55284675
19.42415058
19.42415058
19.42415058
19.42415058
44.22123
44.22123
44.22123
44.22123
36.05057605
36.05057605
36.05057605
36.05057605
37.05703399
37.05703399
37.05703399
37.05703399
27.23097929
27.23097929
27.23097929
27.23097929
32.37436078
32.37436078
32.37436078
32.37436078
47.79744253
47.79744253
47.79744253
47.79744253
47.0382894
47.0382894
47.0382894
47.0382894
40.19276596
40.19276596
40.19276596
40.19276596
46.10314458
46.10314458
46.10314458
46.10314458
15.20491816
15.20491816
15.20491816
15.20491816
42.64789065
42.64789065
42.64789065
42.64789065
33.33459554
33.33459554
33.33459554
33.33459554
49.06355341
49.06355341
49.06355341
49.06355341
42.26194804
42.26194804
42.26194804
42.26194804
36.59898991
36.59898991
36.59898991
36.59898991
68.92192033
68.92192033
68.92192033
68.92192033
62.37986538
62.37986538
62.37986538
62.37986538
18.56168698
18.56168698
18.56168698
18.56168698
58.13452434
58.13452434
58.13452434
58.13452434
70.60862057
70.60862057
70.60862057
70.60862057
39.19001601
39.19001601
39.19001601
39.19001601
65.59691732
65.59691732
65.59691732
65.59691732
29.64665732
29.64665732
29.64665732
29.64665732
70.13011116
70.13011116
70.13011116
70.13011116
57.23972713
57.23972713
57.23972713
57.23972713
61.15034115
61.15034115
61.15034115
61.15034115
41.6568572
41.6568572
41.6568572
41.6568572
62.77942558
62.77942558
62.77942558
62.77942558
63.95404325
63.95404325
63.95404325
63.95404325
62.50583687
62.50583687
62.50583687
62.50583687
66.88665606
66.88665606
66.88665606
66.88665606
70.09429167
70.09429167
70.09429167
70.09429167
25.93366076
25.93366076
25.93366076
25.93366076
21.98891794
21.98891794
21.98891794
21.98891794
70.4027506
70.4027506
70.4027506
70.4027506
74.49609082
74.49609082
74.49609082
74.49609082
52.92961088
52.92961088
52.92961088
52.92961088
64.28528886
64.28528886
64.28528886
64.28528886
46.36471936
46.36471936
46.36471936
46.36471936
60.31181481
60.31181481
60.31181481
60.31181481
66.55586308
66.55586308
66.55586308
66.55586308
53.68710004
53.68710004
53.68710004
53.68710004
76.65216159
76.65216159
76.65216159
76.65216159
69.67447947
69.67447947
69.67447947
69.67447947
75.18820889
75.18820889
75.18820889
75.18820889
63.67712802
63.67712802
63.67712802
63.67712802
60.66577644
60.66577644
60.66577644
60.66577644
72.2505728
72.2505728
72.2505728
72.2505728
67.60799448
67.60799448
67.60799448
67.60799448
78.5700327
78.5700327
78.5700327
78.5700327
77.9696801
77.9696801
77.9696801
77.9696801
53.55398224
53.55398224
53.55398224
53.55398224
75.77229366
75.77229366
75.77229366
75.77229366
77.15419524
77.15419524
77.15419524
77.15419524
45.51415853
45.51415853
45.51415853
45.51415853
17.14158983
17.14158983
17.14158983
17.14158983
71.88610673
71.88610673
71.88610673
71.88610673
41.52092151
41.52092151
41.52092151
41.52092151
69.30965885
69.30965885
69.30965885
69.30965885
32.73111657
32.73111657
32.73111657
32.73111657
40.24608557
40.24608557
40.24608557
40.24608557
58.81753568
58.81753568
58.81753568
58.81753568
42.03931158
42.03931158
42.03931158
42.03931158
56.28143188
56.28143188
56.28143188
56.28143188
69.53785313
69.53785313
69.53785313
69.53785313
44.86888702
44.86888702
44.86888702
44.86888702
50.60578959
50.60578959
50.60578959
50.60578959
40.43247324
40.43247324
40.43247324
40.43247324
58.59560393
58.59560393
58.59560393
58.59560393
51.04571858
51.04571858
51.04571858
51.04571858
59.54013163
59.54013163
59.54013163
59.54013163
68.78163229
68.78163229
68.78163229
68.78163229
73.0826707
73.0826707
73.0826707
73.0826707
58.98425968
58.98425968
58.98425968
58.98425968
74.40254525
74.40254525
74.40254525
74.40254525
73.01129256
73.01129256
73.01129256
73.01129256
43.72590096
43.72590096
43.72590096
43.72590096
63.17846604
63.17846604
63.17846604
63.17846604
69.73928524
69.73928524
69.73928524
69.73928524
62.19902089
62.19902089
62.19902089
62.19902089
48.85629764
48.85629764
48.85629764
48.85629764
7.012349287
7.012349287
7.012349287
7.012349287
34.37713247
34.37713247
34.37713247
34.37713247
22.13122426
22.13122426
22.13122426
22.13122426
53.77453242
53.77453242
53.77453242
53.77453242
23.44012218
23.44012218
23.44012218
23.44012218
20.54110683
20.54110683
20.54110683
20.54110683
53.64627111
53.64627111
53.64627111
53.64627111
15.80496278
15.80496278
15.80496278
15.80496278
47.49029745
47.49029745
47.49029745
47.49029745
35.81570445
35.81570445
35.81570445
35.81570445
43.17894211
43.17894211
43.17894211
43.17894211
46.43192348
46.43192348
46.43192348
46.43192348
50.11877523
50.11877523
50.11877523
50.11877523
28.19323487
28.19323487
28.19323487
28.19323487
33.51473405
33.51473405
33.51473405
33.51473405
32.73596676
32.73596676
32.73596676
32.73596676
17.74343515
17.74343515
17.74343515
17.74343515
44.1300867
44.1300867
44.1300867
44.1300867
45.98406587
45.98406587
45.98406587
45.98406587
13.41068241
13.41068241
13.41068241
13.41068241
25.01657042
25.01657042
25.01657042
25.01657042
21.30389211
21.30389211
21.30389211
21.30389211
29.26935364
29.26935364
29.26935364
29.26935364
34.55613022
34.55613022
34.55613022
34.55613022
30.9748973
30.9748973
30.9748973
30.9748973
38.98756388
38.98756388
38.98756388
38.98756388
27.92706798
27.92706798
27.92706798
27.92706798
27.81098607
27.81098607
27.81098607
27.81098607
33.34424037
33.34424037
33.34424037
33.34424037
23.35744253
23.35744253
23.35744253
23.35744253
20.27670764
20.27670764
20.27670764
20.27670764
38.56415318
38.56415318
38.56415318
38.56415318
34.66386933
34.66386933
34.66386933
34.66386933
29.70009096
29.70009096
29.70009096
29.70009096
47.07652994
47.07652994
47.07652994
47.07652994
14.9033361
14.9033361
14.9033361
14.9033361
36.139326
36.139326
36.139326
36.139326
16.83193155
16.83193155
16.83193155
16.83193155
11.35830431
11.35830431
11.35830431
11.35830431
47.66789397
47.66789397
47.66789397
47.66789397
17.77994115
17.77994115
17.77994115
17.77994115
29.74110993
29.74110993
29.74110993
29.74110993
41.10841147
41.10841147
41.10841147
41.10841147
9.879745522
9.879745522
9.879745522
9.879745522
24.25197723
24.25197723
24.25197723
24.25197723
44.55234067
44.55234067
44.55234067
44.55234067
32.95645339
32.95645339
32.95645339
32.95645339
36.44955061
36.44955061
36.44955061
36.44955061
19.80749781
19.80749781
19.80749781
19.80749781
41.12202831
41.12202831
41.12202831
41.12202831
45.70549521
45.70549521
45.70549521
45.70549521
39.58765596
39.58765596
39.58765596
39.58765596
35.31993246
35.31993246
35.31993246
35.31993246
29.70830975
29.70830975
29.70830975
29.70830975
17.33515531
17.33515531
17.33515531
17.33515531
33.01603376
33.01603376
33.01603376
33.01603376
20.07626882
20.07626882
20.07626882
20.07626882
19.86236317
19.86236317
19.86236317
19.86236317
8.435038821
8.435038821
8.435038821
8.435038821
26.28341254
26.28341254
26.28341254
26.28341254
20.35767798
20.35767798
20.35767798
20.35767798
36.25734013
36.25734013
36.25734013
36.25734013
23.86979038
23.86979038
23.86979038
23.86979038
24.21213578
24.21213578
24.21213578
24.21213578
22.15372487
22.15372487
22.15372487
22.15372487
34.26414167
34.26414167
34.26414167
34.26414167
31.92921171
31.92921171
31.92921171
31.92921171
7.695392614
7.695392614
7.695392614
7.695392614
14.64192639
14.64192639
14.64192639
14.64192639
22.54726568
22.54726568
22.54726568
22.54726568
48.86939443
48.86939443
48.86939443
48.86939443
42.78890313
42.78890313
42.78890313
42.78890313
36.70822408
36.70822408
36.70822408
36.70822408
43.17321655
43.17321655
43.17321655
43.17321655
37.0503647
37.0503647
37.0503647
37.0503647
31.06195959
31.06195959
31.06195959
31.06195959
10.35940638
10.35940638
10.35940638
10.35940638
30.53385835
30.53385835
30.53385835
30.53385835
24.6346587
24.6346587
24.6346587
24.6346587
44.17574452
44.17574452
44.17574452
44.17574452
48.45145484
48.45145484
48.45145484
48.45145484
57.84980136
57.84980136
57.84980136
57.84980136
48.19766632
48.19766632
48.19766632
48.19766632
57.16999656
57.16999656
57.16999656
57.16999656
0.87909871
0.87909871
0.87909871
0.87909871
48.91885478
48.91885478
48.91885478
48.91885478
35.83564444
35.83564444
35.83564444
35.83564444
53.32392811
53.32392811
53.32392811
53.32392811
55.54470226
55.54470226
55.54470226
55.54470226
48.81794637
48.81794637
48.81794637
48.81794637
51.74114834
51.74114834
51.74114834
51.74114834
56.99933175
56.99933175
56.99933175
56.99933175
40.08069742
40.08069742
40.08069742
40.08069742
38.26337962
38.26337962
38.26337962
38.26337962
56.16313919
56.16313919
56.16313919
56.16313919
38.63198019
38.63198019
38.63198019
38.63198019
25.36778379
25.36778379
25.36778379
25.36778379
28.80771811
28.80771811
28.80771811
28.80771811
44.99146993
44.99146993
44.99146993
44.99146993
37.26172223
37.26172223
37.26172223
37.26172223
22.94378028
22.94378028
22.94378028
22.94378028
25.87864465
25.87864465
25.87864465
25.87864465
41.96613077
41.96613077
41.96613077
41.96613077
23.16448147
23.16448147
23.16448147
23.16448147
28.12510117
28.12510117
28.12510117
28.12510117
43.26621679
43.26621679
43.26621679
43.26621679
61.24565896
61.24565896
61.24565896
61.24565896
36.88114757
36.88114757
36.88114757
36.88114757
69.55682278
69.55682278
69.55682278
69.55682278
25.35273133
25.35273133
25.35273133
25.35273133
20.35702489
20.35702489
20.35702489
20.35702489
41.50845974
41.50845974
41.50845974
41.50845974
61.90673155
61.90673155
61.90673155
61.90673155
49.91235274
49.91235274
49.91235274
49.91235274
46.64431076
46.64431076
46.64431076
46.64431076
39.76160474
39.76160474
39.76160474
39.76160474
41.9641301
41.9641301
41.9641301
41.9641301
14.44447831
14.44447831
14.44447831
14.44447831
47.93818156
47.93818156
47.93818156
47.93818156
50.45508856
50.45508856
50.45508856
50.45508856
49.00394783
49.00394783
49.00394783
49.00394783
23.87830931
23.87830931
23.87830931
23.87830931
43.77189678
43.77189678
43.77189678
43.77189678
42.99915191
42.99915191
42.99915191
42.99915191
74.60153262
74.60153262
74.60153262
74.60153262
76.89395512
76.89395512
76.89395512
76.89395512
58.1163706
58.1163706
58.1163706
58.1163706
47.76222311
47.76222311
47.76222311
47.76222311
69.53079741
69.53079741
69.53079741
69.53079741
69.25070112
69.25070112
69.25070112
69.25070112
81.38015797
81.38015797
81.38015797
81.38015797
63.26577646
63.26577646
63.26577646
63.26577646
20.20904673
20.20904673
20.20904673
20.20904673
46.01638377
46.01638377
46.01638377
46.01638377
16.03254708
16.03254708
16.03254708
16.03254708
70.46216292
70.46216292
70.46216292
70.46216292
80.8402787
80.8402787
80.8402787
80.8402787
39.91097905
39.91097905
39.91097905
39.91097905
66.94214876
66.94214876
66.94214876
66.94214876
63.86834001
63.86834001
63.86834001
63.86834001
51.72318343
51.72318343
51.72318343
51.72318343
55.18774414
55.18774414
55.18774414
55.18774414
20.23928248
20.23928248
20.23928248
20.23928248
50.84941804
50.84941804
50.84941804
50.84941804
64.63871454
64.63871454
64.63871454
64.63871454
10.24032685
10.24032685
10.24032685
10.24032685
25.45401862
25.45401862
25.45401862
25.45401862
8.019871178
8.019871178
8.019871178
8.019871178
54.66776327
54.66776327
54.66776327
54.66776327
61.41187203
61.41187203
61.41187203
61.41187203
19.36780811
19.36780811
19.36780811
19.36780811
-0.028823709
-0.028823709
-0.028823709
-0.028823709
24.82731944
24.82731944
24.82731944
24.82731944
65.40569107
65.40569107
65.40569107
65.40569107
29.6122584
29.6122584
29.6122584
29.6122584
36.51157672
36.51157672
36.51157672
36.51157672
43.89274906
43.89274906
43.89274906
43.89274906
45.78947276
45.78947276
45.78947276
45.78947276
42.47970339
42.47970339
42.47970339
42.47970339
35.80335612
35.80335612
35.80335612
35.80335612
2.338920309
2.338920309
2.338920309
2.338920309
38.48992747
38.48992747
38.48992747
38.48992747
59.09338818
59.09338818
59.09338818
59.09338818
19.22511822
19.22511822
19.22511822
19.22511822
72.18575813
72.18575813
72.18575813
72.18575813
62.01064416
62.01064416
62.01064416
62.01064416
59.92555921
59.92555921
59.92555921
59.92555921
44.36840289
44.36840289
44.36840289
44.36840289
39.68400933
39.68400933
39.68400933
39.68400933
57.46894794
57.46894794
57.46894794
57.46894794
51.87387467
51.87387467
51.87387467
51.87387467
53.71172995
53.71172995
53.71172995
53.71172995
60.92729393
60.92729393
60.92729393
60.92729393
42.05868578
42.05868578
42.05868578
42.05868578
40.22741671
40.22741671
40.22741671
40.22741671
44.26614713
44.26614713
44.26614713
44.26614713
34.21138431
34.21138431
34.21138431
34.21138431
81.55331265
81.55331265
81.55331265
81.55331265
51.7094197
51.7094197
51.7094197
51.7094197
34.30369363
34.30369363
34.30369363
34.30369363
27.07629692
27.07629692
27.07629692
27.07629692
51.02352032
51.02352032
51.02352032
51.02352032
39.46409497
39.46409497
39.46409497
39.46409497
56.83147901
56.83147901
56.83147901
56.83147901
58.77179678
58.77179678
58.77179678
58.77179678
63.99270304
63.99270304
63.99270304
63.99270304
69.30324016
69.30324016
69.30324016
69.30324016
0.253382776
0.253382776
0.253382776
0.253382776
30.72862111
30.72862111
30.72862111
30.72862111
62.25970782
62.25970782
62.25970782
62.25970782
68.76844661
68.76844661
68.76844661
68.76844661
70.70571386
70.70571386
70.70571386
70.70571386
62.08232648
62.08232648
62.08232648
62.08232648
47.63771358
47.63771358
47.63771358
47.63771358
55.34620978
55.34620978
55.34620978
55.34620978
69.83551096
69.83551096
69.83551096
69.83551096
31.69190518
31.69190518
31.69190518
31.69190518
53.10163633
53.10163633
53.10163633
53.10163633
36.23785793
36.23785793
36.23785793
36.23785793
0.848038074
0.848038074
0.848038074
0.848038074
63.17877775
63.17877775
63.17877775
63.17877775
66.28782456
66.28782456
66.28782456
66.28782456
19.96219542
19.96219542
19.96219542
19.96219542
26.38279267
26.38279267
26.38279267
26.38279267
4.214535685
4.214535685
4.214535685
4.214535685
16.66970759
16.66970759
16.66970759
16.66970759
35.64253725
35.64253725
35.64253725
35.64253725
11.75049665
11.75049665
11.75049665
11.75049665
39.69054888
39.69054888
39.69054888
39.69054888
34.99600536
34.99600536
34.99600536
34.99600536
18.19369665
18.19369665
18.19369665
18.19369665
14.60005262
14.60005262
14.60005262
14.60005262
41.33329219
41.33329219
41.33329219
41.33329219
70.34122908
70.34122908
70.34122908
70.34122908
3.771484509
3.771484509
3.771484509
3.771484509
67.36419908
67.36419908
67.36419908
67.36419908
43.70252641
43.70252641
43.70252641
43.70252641
5.112079986
5.112079986
5.112079986
5.112079986
69.01774774
69.01774774
69.01774774
69.01774774
48.98350718
48.98350718
48.98350718
48.98350718
50.06624091
50.06624091
50.06624091
50.06624091
64.20898031
64.20898031
64.20898031
64.20898031
56.35192003
56.35192003
56.35192003
56.35192003
10.39843987
10.39843987
10.39843987
10.39843987
22.97575991
22.97575991
22.97575991
22.97575991
12.12142131
12.12142131
12.12142131
12.12142131
67.47351853
67.47351853
67.47351853
67.47351853
55.4843862
55.4843862
55.4843862
55.4843862
39.11506863
39.11506863
39.11506863
39.11506863
32.37291868
32.37291868
32.37291868
32.37291868
45.55059565
45.55059565
45.55059565
45.55059565
76.53650809
76.53650809
76.53650809
76.53650809
68.85638007
68.85638007
68.85638007
68.85638007
28.29073066
28.29073066
28.29073066
28.29073066
0
0
0
0
39.29073318
39.29073318
39.29073318
39.29073318
31.63498862
31.63498862
31.63498862
31.63498862
46.19613697
46.19613697
46.19613697
46.19613697
43.39995732
43.39995732
43.39995732
43.39995732
49.20041188
49.20041188
49.20041188
49.20041188
63.93916981
63.93916981
63.93916981
63.93916981
60.16565364
60.16565364
60.16565364
60.16565364
64.82404959
64.82404959
64.82404959
64.82404959
57.93051104
57.93051104
57.93051104
57.93051104
28.42865949
28.42865949
28.42865949
28.42865949
29.66737074
29.66737074
29.66737074
29.66737074
31.22826053
31.22826053
31.22826053
31.22826053
24.49459797
24.49459797
24.49459797
24.49459797
46.14714672
46.14714672
46.14714672
46.14714672
52.0488147
52.0488147
52.0488147
52.0488147
50.84891489
50.84891489
50.84891489
50.84891489
45.62332547
45.62332547
45.62332547
45.62332547
63.08746406
63.08746406
63.08746406
63.08746406
54.92152563
54.92152563
54.92152563
54.92152563
59.63034015
59.63034015
59.63034015
59.63034015
58.31948145
58.31948145
58.31948145
58.31948145
49.14039371
49.14039371
49.14039371
49.14039371
49.91536782
49.91536782
49.91536782
49.91536782
58.76050825
58.76050825
58.76050825
58.76050825
39.69246772
39.69246772
39.69246772
39.69246772
59.28084484
59.28084484
59.28084484
59.28084484
59.28084484
59.28084484
59.28084484
59.28084484
50.48879258
50.48879258
50.48879258
50.48879258
50.67004559
50.67004559
50.67004559
50.67004559
50.47171064
50.47171064
50.47171064
50.47171064
50.47171064
50.47171064
50.47171064
50.47171064
39.87476603
39.87476603
39.87476603
39.87476603
44.15730604
44.15730604
44.15730604
44.15730604
47.37963496
47.37963496
47.37963496
47.37963496
46.74957438
46.74957438
46.74957438
46.74957438
29.53150473
29.53150473
29.53150473
29.53150473
41.39754574
41.39754574
41.39754574
41.39754574
47.20400979
47.20400979
47.20400979
47.20400979
50.01555029
50.01555029
50.01555029
50.01555029
54.53579749
54.53579749
54.53579749
54.53579749
63.02473057
63.02473057
63.02473057
63.02473057
36.91370527
36.91370527
36.91370527
36.91370527
51.83251748
51.83251748
51.83251748
51.83251748
55.49686966
55.49686966
55.49686966
55.49686966
56.03530571
56.03530571
56.03530571
56.03530571
56.03530571
56.03530571
56.03530571
56.03530571
52.36160625
52.36160625
52.36160625
52.36160625
46.99397836
46.99397836
46.99397836
46.99397836
56.19288633
56.19288633
56.19288633
56.19288633
48.7900248
48.7900248
48.7900248
48.7900248
48.32665617
48.32665617
48.32665617
48.32665617
0
0
0
0
0
0
0
0
67.68227336
67.68227336
67.68227336
67.68227336
64.56578579
64.56578579
64.56578579
64.56578579
48.21462547
48.21462547
48.21462547
48.21462547
70.82468249
70.82468249
70.82468249
70.82468249
65.52741328
65.52741328
65.52741328
65.52741328
56.25516073
56.25516073
56.25516073
56.25516073
44.81897813
44.81897813
44.81897813
44.81897813
51.57067614
51.57067614
51.57067614
51.57067614
23.19863644
23.19863644
23.19863644
23.19863644
18.6736673
18.6736673
18.6736673
18.6736673
4.372807518
4.372807518
4.372807518
4.372807518
47.75682254
47.75682254
47.75682254
47.75682254
61.02773597
61.02773597
61.02773597
61.02773597
35.12753696
35.12753696
35.12753696
35.12753696
16.00480559
16.00480559
16.00480559
16.00480559
16.00480559
16.00480559
16.00480559
16.00480559
5.756897736
5.756897736
5.756897736
5.756897736
6.34625383
6.34625383
6.34625383
6.34625383
60.34770149
60.34770149
60.34770149
60.34770149
60.34770149
60.34770149
60.34770149
60.34770149
61.20043358
61.20043358
61.20043358
61.20043358
45.16675194
45.16675194
45.16675194
45.16675194
57.11129486
57.11129486
57.11129486
57.11129486
33.93695878
33.93695878
33.93695878
33.93695878
52.16773616
52.16773616
52.16773616
52.16773616
21.4877863
21.4877863
21.4877863
21.4877863
52.37267856
52.37267856
52.37267856
52.37267856
49.64158565
49.64158565
49.64158565
49.64158565
49.64158565
49.64158565
49.64158565
49.64158565
51.00512828
51.00512828
51.00512828
51.00512828
76.88879209
76.88879209
76.88879209
76.88879209
64.64865755
64.64865755
64.64865755
64.64865755
49.92783442
49.92783442
49.92783442
49.92783442
62.19540715
62.19540715
62.19540715
62.19540715
40.07801442
40.07801442
40.07801442
40.07801442
27.78818266
27.78818266
27.78818266
27.78818266
56.94082592
56.94082592
56.94082592
56.94082592
56.94082592
56.94082592
56.94082592
56.94082592
24.8232504
24.8232504
24.8232504
24.8232504
43.63033871
43.63033871
43.63033871
43.63033871
4.955130291
4.955130291
4.955130291
4.955130291
0
0
0
0
48.88039413
48.88039413
48.88039413
48.88039413
48.88039413
48.88039413
48.88039413
48.88039413
29.94261078
29.94261078
29.94261078
29.94261078
0
0
0
0
0
0
0
0
0
0
0
0
51.96269808
51.96269808
51.96269808
51.96269808
17.37142675
17.37142675
17.37142675
17.37142675
64.76130086
64.76130086
64.76130086
64.76130086
54.51578731
54.51578731
54.51578731
54.51578731
56.80023487
56.80023487
56.80023487
56.80023487
56.80023487
56.80023487
56.80023487
56.80023487
50.46359384
50.46359384
50.46359384
50.46359384
55.05173696
55.05173696
55.05173696
55.05173696
55.05173696
55.05173696
55.05173696
55.05173696
77.07282779
77.07282779
77.07282779
77.07282779
46.90847578
46.90847578
46.90847578
46.90847578
66.91151939
66.91151939
66.91151939
66.91151939
60.93051549
60.93051549
60.93051549
60.93051549
0
0
0
0
46.52965245
46.52965245
46.52965245
46.52965245
36.76086794
36.76086794
36.76086794
36.76086794
56.16220082
56.16220082
56.16220082
56.16220082
35.77018975
35.77018975
35.77018975
35.77018975
46.22635685
46.22635685
46.22635685
46.22635685
55.521644
55.521644
55.521644
55.521644
55.521644
55.521644
55.521644
55.521644
4.912235075
4.912235075
4.912235075
4.912235075
34.75479371
34.75479371
34.75479371
34.75479371
50.68554623
50.68554623
50.68554623
50.68554623
2.864568177
2.864568177
2.864568177
2.864568177
68.57068059
68.57068059
68.57068059
68.57068059
74.24361333
74.24361333
74.24361333
74.24361333
10.10390533
10.10390533
10.10390533
10.10390533
0
0
0
0
20.99338098
20.99338098
20.99338098
20.99338098
20.99338098
20.99338098
20.99338098
20.99338098
63.30069631
63.30069631
63.30069631
63.30069631
1.375680113
1.375680113
1.375680113
1.375680113
0
0
0
0
63.12189825
63.12189825
63.12189825
63.12189825
0
0
0
0
46.83543664
46.83543664
46.83543664
46.83543664
40.25219969
40.25219969
40.25219969
40.25219969
47.45865574
47.45865574
47.45865574
47.45865574
54.22325852
54.22325852
54.22325852
54.22325852
54.22325852
54.22325852
54.22325852
54.22325852
65.61919267
65.61919267
65.61919267
65.61919267
76.04558281
76.04558281
76.04558281
76.04558281
75.04976288
75.04976288
75.04976288
75.04976288
63.50833219
63.50833219
63.50833219
63.50833219
29.1528627
29.1528627
29.1528627
29.1528627
45.86130257
45.86130257
45.86130257
45.86130257
0
0
0
0
33.34401092
33.34401092
33.34401092
33.34401092
44.79902566
44.79902566
44.79902566
44.79902566
72.03891884
72.03891884
72.03891884
72.03891884
12.43297957
12.43297957
12.43297957
12.43297957
55.0284164
55.0284164
55.0284164
55.0284164
21.81565563
21.81565563
21.81565563
21.81565563
52.80171245
52.80171245
52.80171245
52.80171245
39.26529853
39.26529853
39.26529853
39.26529853
64.83823694
64.83823694
64.83823694
64.83823694
2.063844281
2.063844281
2.063844281
2.063844281
1.517287611
1.517287611
1.517287611
1.517287611
8.27716277
8.27716277
8.27716277
8.27716277
60.57885839
60.57885839
60.57885839
60.57885839
52.37025921
52.37025921
52.37025921
52.37025921
44.89931656
44.89931656
44.89931656
44.89931656
32.48802171
32.48802171
32.48802171
32.48802171
34.04988408
34.04988408
34.04988408
34.04988408
68.14535202
68.14535202
68.14535202
68.14535202
44.19355671
44.19355671
44.19355671
44.19355671
59.18547619
59.18547619
59.18547619
59.18547619
20.89046687
20.89046687
20.89046687
20.89046687
66.61884943
66.61884943
66.61884943
66.61884943
0
0
0
0
0
0
0
0
75.3693673
75.3693673
75.3693673
75.3693673
75.3693673
75.3693673
75.3693673
75.3693673
66.43453697
66.43453697
66.43453697
66.43453697
50.97694884
50.97694884
50.97694884
50.97694884
62.43645446
62.43645446
62.43645446
62.43645446
62.43645446
62.43645446
62.43645446
62.43645446
15.87954359
15.87954359
15.87954359
15.87954359
54.55934819
54.55934819
54.55934819
54.55934819
54.55934819
54.55934819
54.55934819
54.55934819
52.81235586
52.81235586
52.81235586
52.81235586
68.87478978
68.87478978
68.87478978
68.87478978
32.31512197
32.31512197
32.31512197
32.31512197
59.15285397
59.15285397
59.15285397
59.15285397
13.53898054
13.53898054
13.53898054
13.53898054
34.40621537
34.40621537
34.40621537
34.40621537
49.0451224
49.0451224
49.0451224
49.0451224
47.08672782
47.08672782
47.08672782
47.08672782
54.35267709
54.35267709
54.35267709
54.35267709
41.26353065
41.26353065
41.26353065
41.26353065
29.05703533
29.05703533
29.05703533
29.05703533
59.45169895
59.45169895
59.45169895
59.45169895
48.40883528
48.40883528
48.40883528
48.40883528
35.71844104
35.71844104
35.71844104
35.71844104
61.29578352
61.29578352
61.29578352
61.29578352
61.29578352
61.29578352
61.29578352
61.29578352
52.61944248
52.61944248
52.61944248
52.61944248
38.78810056
38.78810056
38.78810056
38.78810056
41.86397687
41.86397687
41.86397687
41.86397687
14.54915372
14.54915372
14.54915372
14.54915372
54.14425458
54.14425458
54.14425458
54.14425458
44.09170134
44.09170134
44.09170134
44.09170134
55.20394974
55.20394974
55.20394974
55.20394974
63.71835504
63.71835504
63.71835504
63.71835504
58.576033
58.576033
58.576033
58.576033
85.90372574
85.90372574
85.90372574
85.90372574
79.29762571
79.29762571
79.29762571
79.29762571
79.29762571
79.29762571
79.29762571
79.29762571
66.88803065
66.88803065
66.88803065
66.88803065
51.92601901
51.92601901
51.92601901
51.92601901
58.76389781
58.76389781
58.76389781
58.76389781
78.05341613
78.05341613
78.05341613
78.05341613
78.05341613
78.05341613
78.05341613
78.05341613
73.37591491
73.37591491
73.37591491
73.37591491
10.81135694
10.81135694
10.81135694
10.81135694
21.15594428
21.15594428
21.15594428
21.15594428
42.06892562
42.06892562
42.06892562
42.06892562
48.31635013
48.31635013
48.31635013
48.31635013
10.99456128
10.99456128
10.99456128
10.99456128
43.44266054
43.44266054
43.44266054
43.44266054
7.260440591
7.260440591
7.260440591
7.260440591
38.47730721
38.47730721
38.47730721
38.47730721
67.87245768
67.87245768
67.87245768
67.87245768
55.10610555
55.10610555
55.10610555
55.10610555
60.45991052
60.45991052
60.45991052
60.45991052
56.24745806
56.24745806
56.24745806
56.24745806
46.95753163
46.95753163
46.95753163
46.95753163
55.74819363
55.74819363
55.74819363
55.74819363
51.82067108
51.82067108
51.82067108
51.82067108
63.71999948
63.71999948
63.71999948
63.71999948
63.71999948
63.71999948
63.71999948
63.71999948
45.14718811
45.14718811
45.14718811
45.14718811
42.61720814
42.61720814
42.61720814
42.61720814
49.45600446
49.45600446
49.45600446
49.45600446
58.1434968
58.1434968
58.1434968
58.1434968
48.42604671
48.42604671
48.42604671
48.42604671
52.91611344
52.91611344
52.91611344
52.91611344
4.339447442
4.339447442
4.339447442
4.339447442
50.28943248
50.28943248
50.28943248
50.28943248
50.97392525
50.97392525
50.97392525
50.97392525
64.38919512
64.38919512
64.38919512
64.38919512
53.95235281
53.95235281
53.95235281
53.95235281
58.2570604
58.2570604
58.2570604
58.2570604
54.22055374
54.22055374
54.22055374
54.22055374
54.22055374
54.22055374
54.22055374
54.22055374
48.56695894
48.56695894
48.56695894
48.56695894
40.1324307
40.1324307
40.1324307
40.1324307
63.44010612
63.44010612
63.44010612
63.44010612
39.79298168
39.79298168
39.79298168
39.79298168
54.94452788
54.94452788
54.94452788
54.94452788
56.01815377
56.01815377
56.01815377
56.01815377
40.75045051
40.75045051
40.75045051
40.75045051
28.55164375
28.55164375
28.55164375
28.55164375
46.30183642
46.30183642
46.30183642
46.30183642
46.30183642
46.30183642
46.30183642
46.30183642
59.49235241
59.49235241
59.49235241
59.49235241
3.380994173
3.380994173
3.380994173
3.380994173
53.7211912
53.7211912
53.7211912
53.7211912
59.14492708
59.14492708
59.14492708
59.14492708
26.27223599
26.27223599
26.27223599
26.27223599
45.14191376
45.14191376
45.14191376
45.14191376
20.61880608
20.61880608
20.61880608
20.61880608
50.89851689
50.89851689
50.89851689
50.89851689
50.98921517
50.98921517
50.98921517
50.98921517
51.83058838
51.83058838
51.83058838
51.83058838
57.44569564
57.44569564
57.44569564
57.44569564
59.56947778
59.56947778
59.56947778
59.56947778
47.99952444
47.99952444
47.99952444
47.99952444
0
0
0
0
63.05945954
63.05945954
63.05945954
63.05945954
15.08343209
15.08343209
15.08343209
15.08343209
61.61103928
61.61103928
61.61103928
61.61103928
0
0
0
0
2.530827324
2.530827324
2.530827324
2.530827324
6.834100198
6.834100198
6.834100198
6.834100198
6.834100198
6.834100198
6.834100198
6.834100198
0
0
0
0
43.76821677
43.76821677
43.76821677
43.76821677
48.25827823
48.25827823
48.25827823
48.25827823
48.25827823
48.25827823
48.25827823
48.25827823
0
0
0
0
43.17771024
43.17771024
43.17771024
43.17771024
51.63181654
51.63181654
51.63181654
51.63181654
47.76362501
47.76362501
47.76362501
47.76362501
36.20125133
36.20125133
36.20125133
36.20125133
25.97647022
25.97647022
25.97647022
25.97647022
52.32749443
52.32749443
52.32749443
52.32749443
45.97696391
45.97696391
45.97696391
45.97696391
50.28036875
50.28036875
50.28036875
50.28036875
55.26834755
55.26834755
55.26834755
55.26834755
38.50350782
38.50350782
38.50350782
38.50350782
50.19284586
50.19284586
50.19284586
50.19284586
68.80817333
68.80817333
68.80817333
68.80817333
0.871835644
0.871835644
0.871835644
0.871835644
9.648493885
9.648493885
9.648493885
9.648493885
75.65726373
75.65726373
75.65726373
75.65726373
75.65726373
75.65726373
75.65726373
75.65726373
0
0
0
0
52.35413177
52.35413177
52.35413177
52.35413177
61.34629196
61.34629196
61.34629196
61.34629196
71.22866155
71.22866155
71.22866155
71.22866155
68.16860052
68.16860052
68.16860052
68.16860052
55.09410965
55.09410965
55.09410965
55.09410965
69.24615508
69.24615508
69.24615508
69.24615508
72.86900609
72.86900609
72.86900609
72.86900609
71.8178217
71.8178217
71.8178217
71.8178217
67.14355779
67.14355779
67.14355779
67.14355779
69.25907502
69.25907502
69.25907502
69.25907502
49.39984784
49.39984784
49.39984784
49.39984784
60.8390158
60.8390158
60.8390158
60.8390158
68.60704903
68.60704903
68.60704903
68.60704903
74.09009246
74.09009246
74.09009246
74.09009246
64.48430067
64.48430067
64.48430067
64.48430067
0
0
0
0
77.8316895
77.8316895
77.8316895
77.8316895
67.65446705
67.65446705
67.65446705
67.65446705
62.55336785
62.55336785
62.55336785
62.55336785
62.55336785
62.55336785
62.55336785
62.55336785
68.52472405
68.52472405
68.52472405
68.52472405
66.97443344
66.97443344
66.97443344
66.97443344
55.79466173
55.79466173
55.79466173
55.79466173
73.8922306
73.8922306
73.8922306
73.8922306
58.08542966
58.08542966
58.08542966
58.08542966
78.68118674
78.68118674
78.68118674
78.68118674
75.80259585
75.80259585
75.80259585
75.80259585
89.30756438
89.30756438
89.30756438
89.30756438
62.44249896
62.44249896
62.44249896
62.44249896
83.94271753
83.94271753
83.94271753
83.94271753
62.47254085
62.47254085
62.47254085
62.47254085
62.47254085
62.47254085
62.47254085
62.47254085
68.43217863
68.43217863
68.43217863
68.43217863
66.4455225
66.4455225
66.4455225
66.4455225
73.32728013
73.32728013
73.32728013
73.32728013
53.03059022
53.03059022
53.03059022
53.03059022
31.93917113
31.93917113
31.93917113
31.93917113
42.64061065
42.64061065
42.64061065
42.64061065
67.37920412
67.37920412
67.37920412
67.37920412
62.9896222
62.9896222
62.9896222
62.9896222
56.20909967
56.20909967
56.20909967
56.20909967
58.62174351
58.62174351
58.62174351
58.62174351
64.28766106
64.28766106
64.28766106
64.28766106
60.01058822
60.01058822
60.01058822
60.01058822
52.74302818
52.74302818
52.74302818
52.74302818
48.91117897
48.91117897
48.91117897
48.91117897
43.94878222
43.94878222
43.94878222
43.94878222
54.56017709
54.56017709
54.56017709
54.56017709
41.70199279
41.70199279
41.70199279
41.70199279
39.93820972
39.93820972
39.93820972
39.93820972
58.14961155
58.14961155
58.14961155
58.14961155
57.08742758
57.08742758
57.08742758
57.08742758
57.08742758
57.08742758
57.08742758
57.08742758
52.39711039
52.39711039
52.39711039
52.39711039
59.29373946
59.29373946
59.29373946
59.29373946
63.67612112
63.67612112
63.67612112
63.67612112
43.22022586
43.22022586
43.22022586
43.22022586
59.02956286
59.02956286
59.02956286
59.02956286
74.89473081
74.89473081
74.89473081
74.89473081
74.89473081
74.89473081
74.89473081
74.89473081
51.15506548
51.15506548
51.15506548
51.15506548
51.15506548
51.15506548
51.15506548
51.15506548
