24876;24691;24510;24331;24155;23981;23810;23641;23474;23310;23148;22989;22831;22676;22523;22371;22222;22075;21930;21786;21645;21505;21368;21231;21097;20964;20833;20704;20576;20450;20325;20202;20080;19960;19841;19724;19608;19493;19380;19268;19157;19048;18939;18832;18727;18622;18519;18416;18315;18215;18116;18018;17921;17825;17730;17637;17544;17452;17361;17271;17182;17094;17007;16920;16835;16750;16667;16584;16502;16420;16340;16260;16181;16103;16026;15949;15873;15798;15723;15649;15576;15504;15432;15361;15291;15221;15152;15083;15015;14948;14881;14815;14749;14684;14620;14556;14493;14430;14368;14306;14245;14184;14124;14065;14006;13947;13889;13831;13774;13717;13661;13605;13550;13495;13441;13387;13333;13280;13228;13175;13123;13072;13021;12970;12920;12870;12821;12771;12723;12674;12626;12579;12531;12484;12438;12392;12346;12300;12255;12210;12165;12121;12077;12034;11990;11947;11905;11862;11820;11779;11737;11696;11655;11614;11574;11534;11494;11455;11416;11377;11338;11299;11261;11223;11186;11148;11111;11074;11038;11001;10965;10929;10893;10858;10823;10787;10753;10718;10684;10650;10616;10582;10549;10515;10482;10449;10417;10384;10352;10320;10288;10256;10225;10194;10163;10132;10101;10070;10040;10010;9980;9950;9921;9891;9862;9833;9804;9775;9747;9718;9690;9662;9634;9606;9579;9551;9524;9497;9470;9443;9416;9390;9363;9337;9311;9285;9259;9234;9208;9183;9158;9132;9107;9083
-0.104754707214118;-0.035872612748657;0.0010989817581086;0.00167613265230572;0.0271710808230439;0.0187916904507439;0.0140772228355698;0.0211982608290354;0.0129849051580676;-0.00304585871542461;0.00472265351887089;0.00070799906808625;-0.0224811597090255;-0.0158357093078693;-0.0211330439509194;-0.029807312628949;-0.0292092130486399;-0.0321612618588629;-0.0383673790739086;-0.0392756781410428;-0.0388287162606582;-0.0443504012152235;-0.0412134029812811;-0.0368459883343913;-0.0385895655607903;-0.0285647463594278;-0.016972366755071;-0.00752673497851491;0.00609287048971085;0.0242641998560531;0.0392447172213731;0.0595289390675705;0.0821211157276396;0.100186498850204;0.121836415348434;0.143533033727914;0.16244243059431;0.181716688267059;0.201635157727662;0.219613623963848;0.236638203951209;0.254290945724079;0.269143303291753;0.284113597545425;0.298049003188104;0.310114773327505;0.322022777519901;0.333231436444222;0.342732599688826;0.350949960461901;0.358689821979304;0.365052716899668;0.369560428676877;0.374273828529708;0.377850763262199;0.380853534188483;0.384964506380707;0.389444697623516;0.393641102685094;0.397523502903355;0.399738776283594;0.399400605746761;0.397560167156811;0.393586923950075;0.389647784210631;0.386874350351934;0.384385210043861;0.382118746272613;0.380171601120467;0.378147763351418;0.37598950049079;0.374261285232904;0.372725723644207;0.37135649473106;0.370213971636308;0.369372822426271;0.368229212687222;0.367001948112391;0.365696079166232;0.363934668061635;0.362093187881154;0.360543294791702;0.358272129429138;0.356585128519797;0.354509545874677;0.35168117575208;0.348048479597203;0.343396757051913;0.338514719894491;0.334441521590512;0.330727853139335;0.326772690685109;0.322843724705304;0.319108419923848;0.314913958757842;0.310764328771543;0.306529395625682;0.301904850453796;0.297192463157393;0.292762910704452;0.288349566918512;0.283984963978854;0.280363985005746;0.27652544600651;0.273116701160624;0.270211926636209;0.26742331205107;0.264950382965319;0.26277737133054;0.260586372113316;0.258390072245956;0.256595450758422;0.254712643615309;0.252654934086093;0.250941929535066;0.249168280282553;0.247196536455406;0.245159309794862;0.243010591285664;0.240854150972918;0.238754193547534;0.236376243656102;0.233923340640675;0.232026203850177;0.23003537033002;0.228055236619916;0.226346715204007;0.22460591583956;0.222887157661418;0.22127253373594;0.219647974497582;0.218002708159939;0.216593643857412;0.215136320501244;0.213259151492599;0.211926915315656;0.21054656322705;0.208890529615759;0.207331780992155;0.205737663867645;0.204131378692647;0.202585918165768;0.200798378063557;0.198610766706655;0.196934062073807;0.19528137204975;0.19304509499823;0.191019191678306;0.188898552782291;0.186611317703795;0.18454372502435;0.182369524199633;0.179957767207942;0.177821128809815;0.175997895778265;0.17378216295711;0.171940798728325;0.170639097074942;0.168599440386955;0.167391658013531;0.166151441107495;0.164737022747778;0.163912911681422;0.163351740516665;0.162659205461213;0.162280725012236;0.161999493179585;0.161091937334945;0.16112969858645;0.160820278990051;0.159893968302565;0.159630647250472;0.158814094280282;0.157440744570336;0.156465999542878;0.155260028250877;0.153706752590704;0.152699291864753;0.151579752014028;0.149428379220379;0.148373207818282;0.147784567388434;0.145866677744256;0.145746866385734;0.145260912277548;0.144806050927065;0.145824569884331;0.146804315481664;0.147623224563907;0.149300292920925;0.150836262486821;0.15137348235426;0.153406284517747;0.155225319515289;0.154823297766784;0.155676563129059;0.155157338169335;0.153669260043956;0.153917104956305;0.152093481953802;0.150444974815709;0.149687914180105;0.147417605454024;0.144877584206501;0.144564198105747;0.143068204386943;0.139224265551526;0.139576161360604;0.13663293927957;0.130653852880118;0.133750715051854;0.131096061513471;0.128949582750911;0.130396706668674;0.124334561232391;0.122868100480628;0.126088764156388;0.124399504045933;0.12231260968296;0.123309140068692;0.118340586241283;0.116397496644881;0.123951232201259;0.115554250731328;0.117993794052824;0.124293507117437;0.11179129191156;0.119355072442499;0.131292860825454;0.120552639137941;0.129140207814649;0.13560065141566;0.122781029519201;0.130302426593206
-0.0181202198806545;-0.0923542515312517;0.0103639117322732;0.0427792969053598;0.00439397868837854;0.0416092957685279;0.0451902382914875;0.0218682583047669;0.0236602937648893;0.0283643370456568;-0.00418977551827262;-9.33632774165144e-05;0.0197802172415898;-0.0223458762698803;-0.0103991883772087;-0.00916396270097509;-0.0299561008895354;-0.0290699169784006;-0.0225067268436042;-0.0355682100153177;-0.0397740972419852;-0.0235137809937091;-0.0418488495257091;-0.0343532761900086;-0.0198993920260285;-0.0235154266142468;-0.0133951243590976;0.00319042172377029;0.0129871425410963;0.0252824921647187;0.0515496219501526;0.067619902854603;0.084318887950014;0.114502518833683;0.132012730626836;0.153117516535718;0.176698088197189;0.196054850514806;0.214137590981661;0.235171421232155;0.25263651880367;0.26655539395498;0.285334169378854;0.298250650690277;0.311040493191631;0.325184586543009;0.336756690829028;0.346948494554669;0.357169698693768;0.365653138525632;0.371585217424133;0.378945400063805;0.384609212686285;0.387563399883427;0.392189858403822;0.395206493966454;0.398423973709343;0.403310447972845;0.40794244002905;0.410530173817376;0.412887246972956;0.413655225369422;0.40953859014314;0.406694545265787;0.403489002167902;0.399524269552865;0.397128961500767;0.395033469047741;0.392196180037735;0.389957229175762;0.388561890918177;0.385622667221528;0.383904962356125;0.383077293333742;0.380888817731406;0.37994206256974;0.378936774182242;0.37708472775055;0.375274448801338;0.373814589432299;0.371326674654965;0.368914164039595;0.36753420423035;0.36475518086127;0.362136677790352;0.359563684296738;0.355309573068279;0.350218612381761;0.345583843755565;0.341142125047849;0.336494692486931;0.333051121128541;0.32838817693073;0.32393799359945;0.320262029720841;0.315402992996666;0.310493843707007;0.305874632431822;0.300833999367887;0.295555704224785;0.291187391664005;0.286710438103884;0.281923263956631;0.278492260380176;0.27468290892082;0.271029227703833;0.268300862301529;0.265521171049827;0.262663729796026;0.260319609562671;0.258068081894645;0.25540796530384;0.253661735796032;0.251536748540416;0.24893624858034;0.247213801670706;0.245037739940016;0.242469679569973;0.240250515621662;0.238001913741997;0.23516388293354;0.232626818341829;0.230380777234623;0.227533870361812;0.225566324611368;0.223560778932722;0.221232488893688;0.219488343157023;0.217641411021778;0.215456094359005;0.21357811379147;0.212037224708792;0.209973166665097;0.208382324196088;0.206796308967134;0.204465471012318;0.203105960602793;0.201596814092811;0.19940257533411;0.19769898956382;0.19610519138214;0.193916327922136;0.191875894659207;0.190273602140459;0.187728202463525;0.18579290478301;0.183990827786303;0.180901181119655;0.178798253640948;0.176728684612006;0.174027300913912;0.171720890159406;0.169619098217934;0.166886051340246;0.164692664301044;0.163208857424855;0.160287647661881;0.158566880947994;0.157597224134298;0.15522755469913;0.154184601949509;0.153335929078356;0.151898489965184;0.151153839952539;0.150905722321725;0.149770617991877;0.149277999596244;0.150105886050681;0.148511475044802;0.148558185327945;0.148835248768525;0.146928134658811;0.146656850455915;0.146045909671411;0.143870656362907;0.142743029120358;0.142112624760395;0.139725614742596;0.138312089886001;0.138355326988839;0.134894899631115;0.134086374003027;0.134226022573641;0.131617568972965;0.132457621951647;0.133528110206462;0.132796645848542;0.134545058193236;0.136714145725671;0.137030847179525;0.139290396373356;0.14288603279138;0.141958192602992;0.144254125481505;0.14824414923242;0.143916930629016;0.14629412427118;0.146384032164749;0.14244263344528;0.143873136296573;0.142662798737329;0.138628584696186;0.13912996426049;0.138404839952812;0.132197168307557;0.133362589338051;0.133761174614429;0.12442020913936;0.129966807931828;0.128011006559916;0.118421523363925;0.126453937535042;0.122121563010479;0.11501572790034;0.120180364314355;0.113995900775186;0.109554276861712;0.117365564726225;0.114354319784992;0.106470311919548;0.118219123307121;0.11122200803314;0.10114619416988;0.124077892183199;0.105393433878508;0.0985873990869988;0.131683198441776;0.0989402462505726;0.112079699342949;0.137130768249189;0.106296092260872;0.118546124145815;0.141436757572742;0.11630836397958
-0.0400925954579093;-0.0379541041059546;-0.00795634284516801;0.0201825280456288;0.0100796105297756;0.0193244244793971;0.0312933773495602;0.0162885760514471;0.00704034391614472;0.0113309228567519;-0.00729661125193573;-0.0142386178758674;-0.00548252536845707;-0.0205323974264718;-0.0239060849954706;-0.0226155765057423;-0.034854166931289;-0.0409550117057089;-0.037317711478668;-0.0386416178716768;-0.0450372677346235;-0.0376149169608659;-0.0451198692847368;-0.0462972870049354;-0.0352663967353678;-0.0309804228176655;-0.022616813276964;-0.00966628983435967;0.00194970519728416;0.0150919345953209;0.0375604819506509;0.0572925270414125;0.0741217348852272;0.0975086660739048;0.117389579269658;0.13734813725693;0.158610555499305;0.178890559947112;0.197716380610186;0.216270459107334;0.233599646470208;0.248555449016641;0.265335758636535;0.279641049751369;0.292493610265892;0.305870943451067;0.317802378075644;0.328244353061676;0.338050991993627;0.346859778144883;0.353893421070306;0.360676003121504;0.366293151891311;0.369796042679257;0.373498778385803;0.37704778588834;0.380911993689206;0.38554710891404;0.390232227707219;0.393695933285951;0.395636442100041;0.396121197189724;0.393396169704808;0.389444058801404;0.386122886527011;0.382866978057057;0.380140231683547;0.377957033603173;0.375724506315902;0.373401801907416;0.371735858125979;0.369571718141928;0.367687091703996;0.366612249893408;0.365258404558312;0.364134603695265;0.363087244550868;0.361695582164154;0.360046397415429;0.358415644251582;0.356545053344045;0.354542261441437;0.352657918092408;0.350619377240295;0.347852329530178;0.345141833193913;0.341456894360125;0.336647497787349;0.331811797534884;0.327519392406367;0.32312110045159;0.319447937343121;0.315347062666186;0.311180508450718;0.307100228626658;0.302677354995157;0.297949982556696;0.293125336855972;0.288324344167363;0.283618400310815;0.279105004801375;0.274742832970658;0.270459902253941;0.266637477552101;0.26335924589243;0.260111582062126;0.257378546298566;0.254881390627715;0.252399210254058;0.250114566199762;0.248119691278595;0.246160729337022;0.244340592583935;0.242603136026083;0.240506210094858;0.238769771724726;0.236995575165359;0.234820916826664;0.232737021155648;0.230764359757262;0.228423394988142;0.226008812236976;0.223945000888819;0.22184078762384;0.219998692616084;0.218213974570687;0.216362221699785;0.214743502872255;0.213221683653092;0.211607819756595;0.21004966034418;0.208694142129815;0.207242536452431;0.205728108712021;0.204243200792638;0.202792031557027;0.201595777825338;0.200372566285416;0.198773680271472;0.197276272745962;0.195965915601716;0.19437492012334;0.19253533063032;0.191095790155014;0.189284782620552;0.187423318638929;0.185801564922722;0.183554463871174;0.181494281220056;0.179757149820602;0.177666998534128;0.175463050650324;0.17345977937747;0.171425553188423;0.1694492455309;0.167930138175912;0.166034940392572;0.164131626073875;0.163189696069879;0.16187294150404;0.160843675939061;0.160212337516419;0.159393562790604;0.158740416246263;0.158568570283077;0.158232271916419;0.157680948559537;0.15811281328372;0.15810525055167;0.157670333831441;0.157706362521525;0.156852032878406;0.156047214242115;0.155620069885467;0.154435839982626;0.15300235958511;0.152073633634368;0.150871482766943;0.14918853158327;0.148620249300541;0.147152475526737;0.14519823441094;0.144999460402231;0.143997937586658;0.144042652155184;0.145059258942904;0.145386659339499;0.14613631340995;0.147760642882198;0.148891110998503;0.149794408216903;0.152028269453117;0.153440415339038;0.154362219309989;0.156744915814219;0.155487038372289;0.154874600295205;0.156491155697414;0.154436149860317;0.153040227036709;0.152153648861874;0.149252767873082;0.147722195543831;0.147882537341386;0.145348542967568;0.142773617085996;0.142148650767715;0.138213448964045;0.136467717658641;0.138494264276233;0.132983894331422;0.132709153291148;0.133504781113562;0.12697065335861;0.127391538652956;0.128084142259781;0.124876086910067;0.12545811581595;0.12648955939026;0.123037336607814;0.125670356984827;0.127983540112408;0.118621849135048;0.127551594890619;0.129715161577134;0.106462931134222;0.126529019962154;0.131635327940065;0.121960447102667;0.13083982737478;0.126299455015985;0.124578826703882;0.141319063918768;0.140094526440088
-0.0980096430757238;-0.00734145011370096;-0.0278354195424531;-0.0103067424380778;0.0449884090948938;0.0282730627003522;0.0220299682328927;0.0286640223424604;0.0152366566249773;-0.00126499290722449;0.00914185663976039;-0.00395142095418876;-0.0229637945909437;-0.00940882413891973;-0.0225281690862815;-0.0277869442887674;-0.0227820966725126;-0.0327633673104455;-0.0431492053002059;-0.0374241073222169;-0.0361432359633165;-0.0484188840060711;-0.0339972084101525;-0.0379549000083373;-0.0414522978546903;-0.0252759552752362;-0.0168666885802957;-0.00852309894179893;0.00943002706049696;0.0282387644517028;0.0404367180597045;0.0636049004588767;0.0870792226223674;0.10330819797451;0.12708236850263;0.148933211271354;0.168422177395979;0.189134183281565;0.209480225473697;0.226643602424882;0.243942398139192;0.26245314611967;0.27632904023334;0.291207091814229;0.305890881886723;0.317759768482926;0.329764262021988;0.34120824293476;0.350436563907319;0.358400874307913;0.366544068441867;0.371930521587412;0.376825476730554;0.382239784180725;0.385054613682515;0.388154490861798;0.392391124390528;0.396565472654765;0.400682970663919;0.40492902170883;0.406964056688052;0.406340179597386;0.404991806866845;0.400430103849286;0.396144767960665;0.393516093298969;0.390729671871426;0.388070000022586;0.386098585597633;0.383990118673126;0.381408485788214;0.380057598133149;0.378326019434433;0.376568344213752;0.375666740892412;0.374565305143768;0.373011857012781;0.371773066454166;0.370429354403727;0.368266425988137;0.366484279593027;0.364519068065852;0.361363706841733;0.359600361203402;0.357207755625205;0.353970732304235;0.350189236211377;0.345243374052695;0.3398233963574;0.335430130833742;0.331614735684175;0.327131353144527;0.322982207709685;0.319105793955929;0.314516945117347;0.310255909985898;0.305856187841385;0.300833217991236;0.295840299559758;0.291276898677489;0.286417063653522;0.282028756543605;0.278394466345805;0.274223166853838;0.270799236657244;0.267829476650073;0.264709287272915;0.262066507287905;0.259826625193622;0.257461663341363;0.255243234641629;0.253597564446491;0.251385333188819;0.249333575397009;0.247634364034605;0.245621387067148;0.243656435495203;0.241665937039653;0.239420264096786;0.23716799766263;0.235066344671768;0.232582893432496;0.230026961795166;0.228263517743018;0.226119906659934;0.224038035891255;0.222561504743923;0.220751155575803;0.21900527052613;0.217481583829811;0.215790308166619;0.214034780169756;0.212806914969717;0.211306054584457;0.209337508632931;0.208271886803704;0.206772887520467;0.205138258415114;0.203731237300143;0.202076318441289;0.200429542143522;0.199063012745785;0.197365886915813;0.195138480457978;0.193640509498125;0.191836984479719;0.189507991277723;0.187795254776121;0.185574326757152;0.183262098109791;0.181392649233586;0.179244954488519;0.176847437384812;0.175030098518126;0.173239812405165;0.170589178730865;0.169247331118523;0.167693145091623;0.165781166168809;0.165053438113709;0.163803912410624;0.162393887348714;0.161850245551975;0.161296579694808;0.160546967702769;0.160649557158827;0.160584241583324;0.159597280807782;0.15996545705984;0.159770224540065;0.158747426702063;0.158930301866377;0.157728905388439;0.156102518801739;0.155647973770509;0.154641957477563;0.152846476828301;0.151919870716707;0.150601410723489;0.148152694847572;0.147957632079472;0.146822341065935;0.144489627224339;0.145300052609825;0.144728529431012;0.143909006189128;0.145582027906498;0.14649166629166;0.147225554512097;0.149885902358921;0.151760495451426;0.151701183605897;0.154721082984476;0.155738347431907;0.154694168772622;0.158227082815931;0.15621856306806;0.154204237269946;0.155787022745506;0.153950161633857;0.152295653620694;0.152468983305308;0.149585000889697;0.146069983072047;0.146716329703325;0.144382245843998;0.139527053640602;0.142934978618395;0.137454627604655;0.133254205285796;0.138074959575233;0.129806386296869;0.128457302676355;0.132460862408499;0.125556452926374;0.124106268621509;0.126952153311489;0.122073699420599;0.121619775402;0.126880603943668;0.116336975274717;0.114972885430734;0.127761248279913;0.112745700992067;0.118984393488348;0.137830681232853;0.109772696259071;0.124586869035177;0.126704921729451;0.109259665802413;0.129438442835527;0.131543718276767;0.121623912908145;0.140845664740654
-0.0952530627816487;-0.0144104811443696;-0.00935739768599316;0.0137539457582445;0.0414830842764542;0.0320639061679643;0.0290331856163699;0.0306782726594653;0.0185047206349446;0.00531989892629686;0.0094107209875754;-0.00298547821915819;-0.0178572991052559;-0.0073717671016648;-0.0179089791471542;-0.0239586942188879;-0.0232067636871136;-0.0316552349931319;-0.0383816914676957;-0.0342718118010048;-0.0360988765050588;-0.0457996585076472;-0.0363697582140707;-0.0376790324872601;-0.039337962233849;-0.0266243628416007;-0.0178939758975506;-0.0088398191528737;0.00683417442430261;0.0238841078042553;0.0376542030657406;0.05898799493155;0.0797716623077885;0.0976526397000364;0.121495725992051;0.141905141809192;0.160496310524835;0.180490743599046;0.199941184062586;0.216759511485764;0.234169602003007;0.251535120970923;0.264591704792887;0.279975224632999;0.29390295986734;0.30545973075152;0.317068488645345;0.327903066096078;0.336850252819902;0.344851860929191;0.352612041396333;0.357899093876069;0.36266290078065;0.36757621761002;0.370726521554236;0.374052523383859;0.378054721574502;0.382057507242508;0.38621186066224;0.390376140845306;0.392365183921075;0.39197711943979;0.390644144773687;0.386033508066308;0.382371330744034;0.379794484293654;0.377019641816602;0.374539996313744;0.372714761681213;0.370690014599622;0.368281332482674;0.367082842183567;0.365140899971882;0.363647628680578;0.362740988161787;0.361607097221833;0.360321806058136;0.35920393774921;0.357764261839306;0.355708563794215;0.354070433094567;0.352180998083336;0.349360422000465;0.347532118928644;0.344918353865659;0.341800608844398;0.338205481409267;0.333338931755831;0.328006477674895;0.323690018931896;0.319717529964856;0.315324261676924;0.311467080371044;0.307342432105012;0.302822112847517;0.298571736914819;0.294077046466212;0.289138791627231;0.284256893417281;0.279597477079688;0.274722966373545;0.270375959928139;0.2666327430814;0.262582473259322;0.259176334500931;0.256127977844096;0.253004506301876;0.250381160747401;0.248111771058194;0.245761092757812;0.243614120491745;0.24177876100431;0.239532204533803;0.237593799547231;0.235829025354453;0.233848551883066;0.231965891706676;0.229942147959222;0.227642348093012;0.225390200062958;0.223296419409857;0.22086502944987;0.218383980858462;0.216610306435873;0.214357585477388;0.212398207939204;0.210680859810786;0.208826181158395;0.207173743180067;0.20560669982293;0.203854900733031;0.202190656457033;0.200873962266045;0.199255023316296;0.197430338459904;0.196297195080484;0.194729603337756;0.193180320173832;0.19175127278912;0.189998472454855;0.188341561306151;0.186932128826193;0.18508429144433;0.182974892878187;0.181467502412352;0.179590641412825;0.177387976856029;0.175683365854186;0.173201436411927;0.170892122069326;0.168949057014809;0.166785676491866;0.16452586886566;0.162659142301015;0.160698094439066;0.158287980503183;0.156889489581146;0.155065471614301;0.15342854344479;0.15262170644974;0.151222612377886;0.150005327531184;0.149480457623042;0.148887378467781;0.148308795945921;0.148360251342077;0.147983338220879;0.147417056616051;0.147846398811127;0.147755516373754;0.146966755436444;0.146821610284455;0.145763633126246;0.144530878907755;0.143757199421395;0.142463674276471;0.140910000378979;0.140044820474471;0.138659422114795;0.136464625556535;0.135933230050201;0.134563233294217;0.132843111326327;0.133566738852316;0.132680562846619;0.132459566222857;0.133845510347872;0.134902246538574;0.136493347275498;0.139012475313009;0.140180700924248;0.140782059319431;0.143938224496758;0.144575103125761;0.144579222871252;0.147221592450333;0.145746137411699;0.144757378660472;0.145075150000695;0.143007472030836;0.141762400513543;0.141422141858795;0.138837796190702;0.136840358185269;0.13707467146912;0.133222273749358;0.130329395171593;0.131799485750981;0.126624286397933;0.124668863026371;0.12704128657249;0.119756221433661;0.120766338481687;0.122196878304865;0.11775850024137;0.1185464665049;0.117881144765421;0.112203055920233;0.114259672945091;0.119659303202631;0.112094091012275;0.110821206212991;0.117116790742684;0.106022031974448;0.117991742514754;0.123380334202033;0.106833123890798;0.12266373317813;0.116966389447711;0.108607684490393;0.126858908781566;0.122648238142581;0.117485195359485;0.134097847033623
-0.0372065059434421;0.00049885646365363;-0.0218030816217748;0.030878128107404;0.0363961731051156;0.0342037744126085;0.0391440936855927;0.0341749246640827;0.0216442022963161;0.0177089979636504;0.017511719204604;-0.00132907681569258;0.00291200062098103;-0.00127711761519946;-0.0205195558001421;-0.0201635673552049;-0.0186435041756028;-0.0243165144152514;-0.0254529268901772;-0.022937018494641;-0.0310075163196964;-0.0323358535802849;-0.0252825110656485;-0.0291190615090964;-0.0214229280109066;-0.0113695306475131;-0.00653963074426177;0.00521083617684238;0.023334160281621;0.0388990253490831;0.0554822895948611;0.0783054108270194;0.0944253694428676;0.115280913240239;0.1373530827889;0.157689003438106;0.177850103823767;0.197776022125264;0.216139852347073;0.233402022273097;0.251317004346166;0.267300411548998;0.282892281158459;0.29778278554858;0.310955350428245;0.323505114130713;0.33507995820646;0.345402271593073;0.35494389106147;0.363801562577623;0.371045833242848;0.377040025392323;0.382146071087422;0.386187237729348;0.389786282591151;0.392953942260776;0.396744306304803;0.401293406599462;0.40578894085968;0.409314842538134;0.4113840201158;0.411625531628483;0.409034401128683;0.40453629636444;0.400809623244381;0.397306401149483;0.394221152496785;0.391759881910651;0.38943437011458;0.386906633408154;0.38482521936694;0.382746394292982;0.380602560939126;0.37925708597625;0.377870356521016;0.376631088288336;0.375405448352841;0.373813048834087;0.372013464094333;0.370366582833635;0.368506716120994;0.366219873243968;0.363953944635478;0.361826145356714;0.359168088709531;0.35633920814513;0.35256695196758;0.347688761485589;0.342726767335446;0.338425437448046;0.334179322069726;0.330157727146025;0.326322707216682;0.322111303466832;0.317853478989962;0.313398761664262;0.308754196978421;0.303976931269761;0.299164197828674;0.29436888562005;0.289633304612291;0.285249396563594;0.281157735289661;0.27724288033293;0.27390995177597;0.270777929346347;0.267887255264266;0.265257360282311;0.262719393732117;0.260320321344319;0.258298669151101;0.256368900623675;0.254226681341984;0.252197502863667;0.250316158411097;0.248414918621817;0.246536752441568;0.244423081084304;0.242185594911585;0.239971274399487;0.237620519855787;0.235087537044911;0.232971397133526;0.230846747903627;0.228755313450257;0.226842933595306;0.224990699416274;0.223242099984292;0.221658063824745;0.220019450633436;0.218290354297928;0.216713871901312;0.215200969267729;0.213525351353162;0.211972762129103;0.210593534095385;0.20912320495412;0.207685439644557;0.205976960032207;0.204306109034094;0.202917922421004;0.201432216732342;0.199502667089647;0.197590687775478;0.195757767261154;0.193738196359325;0.192103818893401;0.189956636252959;0.18762195712415;0.185635653363296;0.183440091169775;0.181125129861326;0.179069393672213;0.177099666359692;0.174964598383677;0.173026942835339;0.171204230498543;0.169338783894677;0.167898109708265;0.166671300404158;0.165269423642852;0.1643716924132;0.16357922337838;0.162682449037886;0.162225006709274;0.162113906948726;0.161439023875543;0.161254711753936;0.161370566751462;0.160524340937768;0.160506428918151;0.159936395680149;0.158897427493314;0.158125438964563;0.157009921370055;0.155462747899848;0.154194512410379;0.153206808899586;0.151736289327409;0.150151172597087;0.149100918559482;0.147096166165209;0.146595066414689;0.146291812946926;0.145465633997511;0.145727184516278;0.146065180443651;0.146720530695109;0.148389342838483;0.150286323942206;0.151551677330552;0.153054374125986;0.154912383178388;0.155000369855782;0.156367506049273;0.156343788766348;0.155513131953434;0.156019533502117;0.154936270605101;0.153079580562428;0.152553637743624;0.150900066769291;0.1482723775211;0.147223664908901;0.145983726228696;0.142691330100139;0.142178714890722;0.140507143615239;0.136394761810067;0.137794236230706;0.134671589255958;0.130474233357552;0.130673978179371;0.128126197948154;0.127757401586518;0.128322122634287;0.124679800586342;0.121909668578718;0.123277181506173;0.122008700827784;0.119977314835961;0.125090129095923;0.121104045238443;0.11760178440643;0.126771441159091;0.1183850741247;0.119787807489834;0.128680710449029;0.120137009345613;0.124183894299228;0.130286363496679;0.127549672467924;0.136300894522465;0.141484938779733
-0.08796872013159;-0.0227767393444025;-0.0128916135208617;0.00129530212495827;0.0247682887843802;0.0263891008179996;0.01603592438197;0.0174432669622807;0.0195449697157946;0.0100756101204496;0.0031735346813571;0.00101421865210418;-0.0143705678668365;-0.0133130013490474;-0.0190302542147302;-0.0271399540197815;-0.0273695889391494;-0.0298531302497049;-0.0344222882475147;-0.0351466540556851;-0.0360417220551508;-0.0416022803644426;-0.0411336104627002;-0.037635227872418;-0.0362686967457012;-0.0287615198257515;-0.0168996896648887;-0.00614501637636384;0.00653158440346712;0.0238873197489972;0.0407944658424698;0.0597495521000889;0.0812039766697445;0.100701292470238;0.121444772004119;0.142401760474765;0.162034053808996;0.181308710310303;0.200539036691935;0.21876077328701;0.235873130311208;0.252496603704866;0.267669378316034;0.281622389267858;0.295853602969293;0.308573862609073;0.320067143587625;0.330697441158297;0.340205932727359;0.348460906159237;0.355976502864031;0.36256631210082;0.36727927524801;0.371776848797888;0.375307736051968;0.378443824806056;0.382429680630027;0.38699333322812;0.391305522785316;0.394896521889125;0.397206887274924;0.397145976088576;0.395045764054708;0.39104950664996;0.387278220049855;0.384356586453135;0.381899581803367;0.3795718058198;0.377458565740633;0.37556566988572;0.373498983649992;0.371511857767042;0.369959399422501;0.368524268900886;0.367218676994245;0.366387241230711;0.365273107455591;0.363947519015795;0.362500363883035;0.360704403189143;0.358853518678858;0.35708835700706;0.354820984021238;0.352846268747554;0.350519492048982;0.347645727500346;0.344009282393726;0.339282662538723;0.334249170207157;0.329963271085064;0.326060117636552;0.322228302094881;0.318045025493365;0.314169531115838;0.30995107323354;0.305458326763757;0.300997945913838;0.29628683013398;0.291409579629287;0.286747502068341;0.282227008938055;0.277817138906181;0.273853161352492;0.270209337559477;0.266693091385313;0.263604294594698;0.26079700242425;0.258196424403272;0.255834741710304;0.253598109551519;0.251401371107567;0.249575309398011;0.247575454636661;0.245542569149975;0.243730039936855;0.241947180101014;0.239912640701282;0.237781101501363;0.235671181264305;0.233504317628171;0.231196794657136;0.228823640001681;0.226484452075115;0.224387367785476;0.222442691360992;0.220418442380613;0.218682658083151;0.217003099077827;0.215239107286789;0.213549849938503;0.211960026417656;0.210342235601659;0.208837982344921;0.207307490661773;0.205515578285824;0.204155214053302;0.202698797456602;0.201118390648836;0.199569155614305;0.197969177152363;0.196325996132915;0.194705735718719;0.192958331879645;0.190914430075193;0.189087060377719;0.187273095930138;0.185208212018343;0.183012884697609;0.180883726007696;0.178655243839286;0.176613877640992;0.174430439435549;0.172062444575159;0.169966646542456;0.168018564351427;0.165840269334428;0.16411793735375;0.162752376754077;0.16097798119769;0.159695317711749;0.158518205892931;0.157448358146442;0.156750336462014;0.156228271125265;0.15568265414864;0.155300825427392;0.155125803404673;0.154974679378249;0.154881486585608;0.154662047541735;0.154296045720022;0.153709722435722;0.152952018901475;0.151761049805947;0.150755137630257;0.149743211796513;0.148304274029135;0.146909069200452;0.14584589673171;0.144197343194081;0.142954715426151;0.141664898636956;0.140260833949011;0.140238280045757;0.139874759981158;0.139771329594925;0.140587036748983;0.141663213611762;0.142837635560501;0.144785199375376;0.147060336736071;0.148326395205406;0.149609516435196;0.151487592583365;0.151253741939535;0.152177508335312;0.151879143448775;0.151080097010128;0.150842285997175;0.149985022321438;0.148236634218065;0.146988991353691;0.145615245661246;0.143556907793226;0.142379878739679;0.14121047967078;0.137294812507767;0.136818457306676;0.136000702986265;0.131135355504117;0.131159380038921;0.12965386792385;0.126360218942865;0.126822907673463;0.124815646044375;0.122367349684796;0.122437583556205;0.120655892045175;0.118324218128449;0.120176756007853;0.119763373871992;0.11587658507051;0.119863234213209;0.120856964531186;0.115951108618466;0.120140903670504;0.115042442913673;0.115859515646866;0.120591965224341;0.117215475464814;0.118384218545503;0.125628016448203;0.125505542137745;0.131755131733254
-0.0406929075701227;-0.0239993797948783;0.0362491836742641;0.0416958155554322;0.0398076787809632;0.053481318556704;0.0411320260182617;0.0363081056825722;0.0419038203674242;0.0338277033950974;0.0183217573867937;0.0201078766220232;0.0113352023131604;-0.00139315126942052;0.00522815426827919;-0.00498907175936205;-0.0124693944286105;-0.0121126559278028;-0.0164223919528547;-0.0245890979238821;-0.0216473415223527;-0.0180302363905887;-0.0258144294061192;-0.0147577818596655;-0.0125090608423178;-0.00934422133377111;0.00456954234602375;0.0177583542798408;0.028381490790637;0.0443510156859786;0.0642560527671661;0.0816064868636508;0.104694662981187;0.127301110826746;0.146577537174138;0.168739112354604;0.189232808868831;0.207889291840579;0.227073856319321;0.246106611878193;0.262302246908197;0.278601789452688;0.294320902104227;0.307439033989274;0.320881034775983;0.333338276786513;0.344316445105851;0.354709021405312;0.364050239917595;0.371398573115883;0.377890158013979;0.384170789454046;0.388433342334316;0.392043736447849;0.395510857127742;0.397813430278468;0.401121111817113;0.405241713329884;0.408967465134843;0.412028199973316;0.414143735068462;0.413262630884815;0.410230070750779;0.406227064954653;0.401849372771867;0.398348546152442;0.395536986176474;0.392869693060899;0.390186471401523;0.387662848849679;0.38533285231304;0.382906306089635;0.381210781962418;0.37934560063797;0.377431948520787;0.37633450341607;0.374923078717213;0.373150892407345;0.371350469276649;0.369199930386366;0.366502962724108;0.36412787407819;0.361520427421096;0.358793390176127;0.356142434002551;0.352827870382569;0.34841576127315;0.343189104730751;0.337913293931786;0.333112651861865;0.328685317092464;0.324559696611299;0.3198644531434;0.315708627275527;0.311304648612389;0.306477586877713;0.301830094644554;0.296964544020989;0.291773598553683;0.286765068634786;0.282062263491271;0.277385078265417;0.273049427134065;0.269331075454157;0.265455943588354;0.262044512509533;0.259010089678934;0.256106360090503;0.253487155846964;0.251084906022236;0.248548906340632;0.246322126666072;0.24430247934553;0.241920116463022;0.239824139184766;0.237915453127539;0.235612079230672;0.233226109800794;0.230924790911327;0.228513131304434;0.225957367605546;0.223494219856773;0.22084726402636;0.218415218135383;0.2163523584351;0.214068550055085;0.212020807424747;0.210235597561502;0.208284234190115;0.206312126490146;0.204514779385187;0.202711472239695;0.20098494867755;0.199420240952423;0.197375123014927;0.195720961361707;0.194394352905438;0.192632836862527;0.190740961605666;0.189100820811127;0.187475276902375;0.185684934001613;0.183832304241258;0.181712332719529;0.179638978105908;0.178063911533988;0.175897020862191;0.173361434285441;0.171305631902841;0.169079546760644;0.166825849155037;0.164686001406444;0.162407458711004;0.160154372045726;0.158437822663047;0.156383256036774;0.154241280449269;0.153124683964738;0.151651547726743;0.150105149723088;0.149341452834773;0.148320162052773;0.147510491026489;0.147337238567648;0.14713839750188;0.14675931568358;0.147114630443539;0.14711621487363;0.146665920971324;0.147338336042566;0.147050587743124;0.146348261436327;0.14593297703598;0.144525729805205;0.143243023330039;0.142551043817663;0.141363383232057;0.139580114174655;0.13839940459892;0.137118559734323;0.135241880402245;0.134969026146246;0.133650800515886;0.132920191298576;0.133738128454582;0.133654463446001;0.134614684202537;0.136802746487142;0.138473594092394;0.140233001641793;0.142943971731488;0.144575951305462;0.146224911523478;0.149498165702649;0.150203337750859;0.149840030232208;0.150858943282189;0.149209595630381;0.148132842565331;0.1483933766872;0.14676302996939;0.145186464358695;0.144181363164043;0.141200861112864;0.138725347428961;0.139808240509683;0.13640136122373;0.132940421897393;0.13432819971756;0.128351303020013;0.127798201585546;0.128890792883665;0.122985855561383;0.122733842162654;0.121630866305871;0.118119697253657;0.118157948505623;0.118818556120719;0.116611660126107;0.117193233895678;0.117423327068962;0.108033700168299;0.112223356326026;0.118669447935736;0.106341693329634;0.121483087466847;0.118182748062251;0.105486832297801;0.122127431265516;0.121846649358645;0.117447800132088;0.12859427666641;0.119557545174509;0.116886405137199
-0.0346204363392251;-0.0535539853081333;-0.0298628608034888;0.036704620685429;0.0226002705540725;0.0271459768378755;0.0363999984219872;0.022609832265858;0.0127537561157919;0.0194269168504129;0.0100984573983387;-0.00876236323451831;0.00168559338796614;-0.0148446685852727;-0.0235174836311503;-0.0177718468363099;-0.0261903511259142;-0.0329079256367758;-0.0312977555485747;-0.0346561254754461;-0.0443676547450822;-0.0383801012250116;-0.0374348650014182;-0.0431830208653005;-0.0309496878438006;-0.0261016154909989;-0.0206077825426991;-0.00632952824445178;0.00962828572786355;0.0228998488619298;0.0428682551200507;0.0649901399842111;0.0835068351129655;0.10848818820167;0.130915789375606;0.151583384616643;0.174470352017443;0.196116720125503;0.214847692439467;0.233775338351816;0.253591334723328;0.26950430792372;0.286194980300961;0.301920777975854;0.315321299431538;0.328730030638757;0.341309154041409;0.352173962594341;0.362137777591641;0.371624354454664;0.379096224785973;0.385363649809482;0.391695234846341;0.395979799422502;0.399575161715603;0.403454912877387;0.407564964185494;0.412184794372339;0.417033630081666;0.420907595632003;0.422924656098868;0.4235844689558;0.421055516136291;0.416455515579338;0.413180421156373;0.409819915344693;0.406879262242414;0.404725391029372;0.40247253238048;0.399742701174147;0.397954340626419;0.396155580668931;0.393773245442999;0.392687942176946;0.391156811952242;0.389780102491223;0.388689733563741;0.387206610091392;0.38527390018387;0.383484576965001;0.381670697103081;0.379192817539294;0.377074379573158;0.375045629368972;0.372218894249836;0.369495036918355;0.365635197449811;0.360494386257884;0.355491200342515;0.351282453247884;0.346780248043609;0.342808236151913;0.338856491859072;0.334330845833513;0.330020001656429;0.325465575247255;0.320630346364909;0.315678530310956;0.310628532381333;0.305502379042762;0.300599475856329;0.29617481086815;0.291795025938256;0.28781193944491;0.284266671010276;0.280761051849745;0.277680314347641;0.274947601800828;0.272291238455683;0.269788009201343;0.267603586163307;0.265311197629763;0.263026230043334;0.261070079411128;0.258771401493841;0.256732143512504;0.254717718344237;0.252261700556751;0.249842036232686;0.247609247838239;0.245042092042193;0.242241577665571;0.239997009320054;0.237605733414469;0.235269953602152;0.233384331189079;0.231295686838889;0.229417187132777;0.227703750135531;0.225775971609225;0.223821082162259;0.222242036526858;0.220565786280756;0.218714994779716;0.217151293497684;0.21538648695788;0.213707383999165;0.212265078592102;0.210346535503404;0.208433061840608;0.206871545800704;0.205122657043293;0.20291258673467;0.20103096565636;0.199084510961219;0.19684938860685;0.1948847408298;0.192562597690806;0.189963832868851;0.187948871699247;0.185582915955719;0.182977805025476;0.180781578268199;0.178715797695175;0.176365515740341;0.174484500772602;0.172283817713952;0.169939541514708;0.168625181224584;0.167056882208399;0.165472993023034;0.164476204246485;0.163410513962289;0.162334683296269;0.161777374346348;0.16129116496694;0.160384332621544;0.160469601612825;0.160102190899309;0.159185867558726;0.159052929574937;0.157947400771723;0.156762424127185;0.156090325065277;0.154765612923794;0.153060490259228;0.151929606393257;0.150754768915504;0.148870796628948;0.147908544293089;0.146053873199172;0.143754841089424;0.143732105007303;0.142762817538481;0.141841983083125;0.142528250068851;0.142647840124845;0.142929546626875;0.144745438725923;0.146353553858394;0.147091656856767;0.149367731069971;0.150572170677279;0.151068104971366;0.153378153339224;0.15260609228591;0.151413792952994;0.152715773606519;0.150559824106054;0.14875021491852;0.148910202476972;0.146761690387238;0.144422154943274;0.143977366800929;0.141561462243994;0.138719489652352;0.139275194370028;0.135213300618389;0.132243805240279;0.1344569167828;0.129284825345489;0.127628265714542;0.129555066951188;0.123599643928067;0.123990289460823;0.125121873769897;0.118918542077208;0.118651069842864;0.12262767495279;0.117186692474467;0.116903458125638;0.123477278528682;0.112442728710692;0.114358275624368;0.128264351254187;0.112385118668763;0.120296075115144;0.125654116290991;0.108675560532686;0.127740732975509;0.127635141115369;0.119507847418016;0.136418425037439;0.138832893511142
-0.0460794005856086;-0.0440828838141749;0.0325659474255441;0.0220693998684202;0.028010240420413;0.0524057756725795;0.0421795443900739;0.0323110881408472;0.0355305350811768;0.0277369294310824;0.00982161513774507;0.0176278956867307;0.00639453785802462;-0.0101192457576068;-0.00137626770229582;-0.0123723230298491;-0.0202095846107484;-0.0170024364765891;-0.0196184517204031;-0.027277423256631;-0.020397334223761;-0.018880585375617;-0.0334382317284105;-0.0252374380078798;-0.0193668206336744;-0.0163529687384165;-0.00383133363884749;0.00952594880426526;0.0211283588010666;0.0378987119377538;0.0589946114153795;0.0755189689752546;0.0990839314942425;0.122618747260345;0.140863384623732;0.163198486157469;0.184483947124036;0.203891777443314;0.223556782193786;0.242783648360282;0.259006068415114;0.275144365678192;0.291036019033638;0.304458874765685;0.318248223941808;0.331155613493642;0.341891637642476;0.351912362413476;0.361362509195189;0.36907078906672;0.375811065680029;0.38232890890867;0.386381300064727;0.389898285502118;0.393404765276477;0.39583110037283;0.399286016632876;0.403654098167877;0.407379511555878;0.409955511788904;0.411847334177916;0.411458385973832;0.408268872914621;0.404740830964026;0.400543575323496;0.39683201799736;0.39406627482316;0.391507021127713;0.388828033025315;0.386432684024896;0.384216547475387;0.381664631416459;0.379829577758016;0.377980883203509;0.376243088644741;0.375071894722681;0.373582739534808;0.371761106286735;0.369910335053654;0.367918854274622;0.365700212174877;0.363477000430541;0.361204049766253;0.358476711900647;0.355892920456881;0.352701451634715;0.348460324864786;0.343549041071787;0.338557237287814;0.333786787679367;0.329354928023599;0.325365614659592;0.320975966924491;0.316826295993547;0.312657905868917;0.307938603990011;0.303180552515672;0.298335064990235;0.293292200578445;0.288408538196451;0.283924502660811;0.279171241213881;0.274882006385946;0.271154242212534;0.26733223855765;0.264030032887856;0.26112340014462;0.25829788195563;0.255639491291495;0.253247047876967;0.25088992161211;0.248547828732861;0.246593758695378;0.244423538550356;0.242258419418204;0.240353983877243;0.238120627941326;0.235825213102403;0.233561274466898;0.231158856214284;0.228609208665962;0.226087817917765;0.223527934096357;0.22114764072517;0.219267102014608;0.217001238020171;0.214999998033623;0.213259790176974;0.211355297954338;0.209377104514132;0.207594511364048;0.205901180275582;0.204145068229678;0.202571516047818;0.200654073600404;0.198968790310832;0.197532988053104;0.195934001683856;0.194120811221716;0.192443393037389;0.190771754950796;0.188957129683861;0.187155400956929;0.185208877280556;0.183057764333982;0.181468887482602;0.179344575477051;0.176815723301641;0.174845449860041;0.17266181372032;0.170353302123101;0.168246970044011;0.166040860167024;0.163628405713469;0.161697457013767;0.159955978944778;0.157897233304757;0.156646172176884;0.154950169348904;0.153579130316569;0.152663182369785;0.151659429968841;0.150751573400758;0.150407025951112;0.150180445682465;0.149649847518435;0.149694412204534;0.149847634367388;0.14941918956226;0.149999806383201;0.149409081162916;0.148529082519696;0.148228202893337;0.147250363936;0.146023782773041;0.145229663226895;0.144147165454186;0.142366135403647;0.141066403955236;0.140058550504248;0.13803186973108;0.137996004575399;0.136959761201691;0.135762159496307;0.136463079513738;0.13682726513595;0.137637754321965;0.139401135681162;0.140879062818031;0.142318880935235;0.144945187921828;0.147215131319452;0.147890839860962;0.150652646979916;0.15105230058503;0.149777301196662;0.151422470991162;0.150394684073833;0.149616503619076;0.14958022051956;0.147322910677333;0.145176150657615;0.14467344242359;0.142598323555251;0.139557176376303;0.139670200174687;0.136937794772976;0.133745042174126;0.133339151060746;0.129635780046075;0.12980199442395;0.131429674199356;0.124210427775817;0.122130940750045;0.123318255035589;0.120706581522471;0.121460568824338;0.122304321577491;0.115190084315431;0.112363123100351;0.117866617014923;0.11032670043804;0.11829040025351;0.12519655241694;0.111686305664712;0.113921937773905;0.121628222852297;0.112343997424604;0.125515631045383;0.12228383221782;0.112018821111447;0.121156451760287;0.126713294244009;0.124285238941263
-0.0784618932513062;-0.0507999252523791;-0.0214737721704011;0.006810174747925;0.0243189458240575;0.026574987374238;0.0166403243298273;0.00881766616879183;0.00864959207419697;0.00820430867190768;0.00087350576423261;-0.00454491340172644;-0.0139426351704498;-0.0209874086201712;-0.0278822602354309;-0.032655017689158;-0.0332314974171176;-0.0368663352379019;-0.0417549724924256;-0.0445593580766679;-0.0472740883799258;-0.0454743685814981;-0.0458199810405388;-0.0457492388871278;-0.0410352321802404;-0.0349078711113589;-0.0246740400421406;-0.0123491070891545;0.00102819232423953;0.016676922872208;0.0347225510715337;0.0538644334221939;0.0754463161890348;0.0972004902770263;0.118613631165199;0.139863492903518;0.160449806655529;0.180488308730264;0.199731603693925;0.218013111198857;0.23586004786526;0.252602021388817;0.268274280413611;0.282719705295895;0.296713867846368;0.309581511797784;0.321213661094401;0.332027325591957;0.341941358491096;0.350584327188493;0.358046645314353;0.364154491829807;0.369811815883929;0.373837904485749;0.377501964628378;0.380876708263417;0.384779397173295;0.389471209569847;0.394047766384721;0.39758663676663;0.399977823205232;0.399656579781841;0.397169602545251;0.393329559792007;0.389996564938375;0.387046483799383;0.384394891979462;0.382030606671945;0.379826245319072;0.377645450053918;0.375592688606413;0.373765806475645;0.37209069361533;0.370561041136006;0.369417759198197;0.368309118742962;0.367091438064222;0.365636910891333;0.363972017200556;0.362153875001936;0.360085403852145;0.358086661190436;0.35586749409496;0.353832307842545;0.351409825147495;0.348452380585266;0.344634292643438;0.339634153114619;0.334449026052672;0.330161163876555;0.326068950877532;0.322034355068123;0.317859709017926;0.313479379274231;0.309210228826656;0.304607905985205;0.299908706324282;0.295014998062614;0.289984574834862;0.285046662312906;0.280249208199257;0.275843618788955;0.271620891637186;0.267666321736098;0.263952747128601;0.260634568232967;0.257668189275124;0.254951923036838;0.252384222611164;0.249973376026264;0.247737148191968;0.245491280206149;0.243418429178951;0.241293727369244;0.239216659249263;0.237360291990251;0.235247632568991;0.232893208254899;0.230572821551339;0.228303114205882;0.225875098091118;0.223314285304588;0.220913779771861;0.218555634103063;0.216430413004965;0.214437488204791;0.212564181072093;0.210722271598408;0.208889335288994;0.207049341109581;0.205277720570222;0.203651544774695;0.202039457246495;0.200403843521553;0.198561300841466;0.196928867745825;0.195434595349493;0.193879542009705;0.192092734129793;0.190514626782663;0.188965115005157;0.187153396208117;0.185238482480743;0.183223819592386;0.181325259434591;0.179380741318034;0.177297753110139;0.175037636865881;0.172824910325462;0.17068483915187;0.168403424655965;0.166080645690938;0.163803532449394;0.161620452803442;0.159654795617176;0.157518946096195;0.155738658240357;0.153872785718919;0.152407353901315;0.151095225900638;0.14980507745243;0.148794809731994;0.147975705597272;0.147336567889896;0.146981680789523;0.146725401461093;0.146304647034446;0.146187633656156;0.146040195474297;0.146098739160649;0.145703494560075;0.145000976490678;0.144159210004091;0.142975298190273;0.141883947390019;0.140721165407007;0.139299074920944;0.137999644664136;0.136850832908935;0.135297918839954;0.13395676164036;0.132781079845859;0.132101378095087;0.131618921451535;0.131356443123962;0.131447954507603;0.132407368506837;0.133976449347943;0.135649020376346;0.137266216456758;0.138774663476786;0.140362161012643;0.142627695065752;0.143731439873884;0.14510729781157;0.145319897195633;0.144257213004186;0.143799046826066;0.143633313622795;0.142905827726618;0.141392250345929;0.139639889899937;0.137944569205933;0.136401599042311;0.135126683343011;0.133687017617764;0.131384006180669;0.128459754516379;0.126894098532216;0.125122916517528;0.123433304670237;0.122688330522312;0.121117763311661;0.1192234386169;0.116777850143854;0.114296003591274;0.1121118563868;0.112019383198282;0.112300855243121;0.111085300170683;0.110606909135575;0.10826088473242;0.109724497020941;0.11413443179264;0.108029133183349;0.115953887902225;0.111113457237218;0.11222746150958;0.110858988157417;0.11397642074762;0.11858098909833;0.118289829991519;0.118669162555678;0.126351446569828
-0.0521623849768239;-0.0214349161945481;0.0407148030701116;0.0048908834352465;0.0240670429614187;0.0411872212763922;0.029991530993888;0.0252423074439721;0.0290043058655556;0.0206492423727433;0.00654569264636281;0.00702092309354218;-0.00988752039747832;-0.0117602737906578;-0.00939819933783028;-0.0209054672799439;-0.0257485380109635;-0.0254615278392994;-0.0308416937807916;-0.0360988765050588;-0.030729626607177;-0.0355081842960373;-0.0428034276979658;-0.0318562636175342;-0.0318546493004379;-0.0272688581955331;-0.0130206016158097;-0.00175058248612962;0.00880122367578534;0.0269201062475178;0.0455725205072091;0.0603919507260513;0.0856583240335714;0.104013899979893;0.121909668578718;0.143686757334369;0.163911518142167;0.182809792829437;0.202422191465713;0.221215142093801;0.236850043886958;0.253510667879068;0.269881943763411;0.283291834146928;0.297618669149242;0.310318819728892;0.321758765578087;0.332631112242141;0.342327007600928;0.350377881375118;0.357856323234335;0.364481370283903;0.368654059733506;0.373238581416383;0.376820822799181;0.379745649740207;0.383724612259638;0.388318849273262;0.392329491510311;0.395629638200371;0.398251944108271;0.39772345829695;0.395424383347076;0.391804091486623;0.38776444177474;0.3847298935697;0.382166801404162;0.379715560393465;0.377514809044981;0.375536384315921;0.373414936077921;0.371366809686051;0.370093489465172;0.368551969239458;0.367285548004269;0.366496196308127;0.365221146020221;0.363762622381975;0.362350591552665;0.360473370229574;0.358256670717015;0.356559661600488;0.354160045952402;0.351745696472284;0.349381877949796;0.346370570682334;0.342337324287409;0.337403264798843;0.332249773900278;0.327597318896008;0.323502004084893;0.31947421843394;0.315148985385693;0.311297177857106;0.307100492871139;0.302525062527838;0.297995349834563;0.293196135206448;0.288244720745548;0.283651779777426;0.279256487972089;0.274645716022715;0.270709234565074;0.267151514636775;0.263495136840229;0.260505186803772;0.257696959812331;0.255036139520234;0.252712749160399;0.250586743462151;0.248461859643212;0.246695530395572;0.244801112325312;0.242698281052266;0.240931063639897;0.239215755221507;0.237237435792257;0.235278837543205;0.233273072276175;0.231072712018668;0.228796058022395;0.226552056408742;0.224242724851448;0.222293477646997;0.220421833181648;0.21853070785246;0.216772817972955;0.215279601410117;0.213658796616696;0.212043452116815;0.21060580660073;0.209097689612725;0.20756593383355;0.20632965636938;0.204614525988236;0.203319464943309;0.202252852929986;0.200751006715847;0.199239700572632;0.197863410709073;0.196417462375373;0.194900182797165;0.193367781003278;0.191494981623683;0.18961577434957;0.188320253323301;0.186356640282382;0.184079334297371;0.18233747039784;0.18036033281738;0.178277235299369;0.176283715863032;0.174138378008764;0.172049536238091;0.17058763495602;0.168687106354845;0.166868767867397;0.165514697434398;0.163997989387923;0.162729950650275;0.162128731224744;0.161063429765116;0.16023658105866;0.159991695569846;0.159692808493914;0.159343353361283;0.159560467801348;0.159376637615299;0.159107177390713;0.1596047441316;0.158888035272342;0.158253591642575;0.157761379164923;0.156577282973076;0.155493934380604;0.154725920277719;0.153432315209351;0.151877972827345;0.15105020977544;0.149379676247987;0.14777010266973;0.147532876797627;0.146064268558183;0.145459806014671;0.146242183267733;0.146170181659718;0.146832206736281;0.148179451051335;0.149053048050245;0.150452282502099;0.152974254557585;0.15435280073046;0.155405909776013;0.157941340383911;0.157726907081503;0.157547471626054;0.158755751765308;0.156219496525669;0.155991108151378;0.156161688169858;0.153932147289733;0.153192409650595;0.152711884599832;0.149471083049671;0.147332665785339;0.147505916419613;0.14344190126248;0.141183488132505;0.143018398398783;0.137577418892264;0.137944688538487;0.137848696094988;0.131678963983197;0.133202502163443;0.132683215489063;0.127505167848677;0.128518369289145;0.129314538427756;0.124523633714652;0.126367829555735;0.130280266710478;0.121149850371628;0.125602730096523;0.130751319640041;0.116172883304442;0.12718637087176;0.13143143753961;0.120201384727618;0.135210573185457;0.130747035572106;0.127495323856457;0.142276151410487;0.134146108048162;0.132040335368484
-0.0231128866590655;0.0266407845209955;-0.0018453000422619;0.035743246247356;0.0566020486815062;0.0358343592240272;0.0415832476064682;0.045117908189697;0.0292765575340385;0.0186115074688385;0.0217689324829579;0.0077669975202939;0.00142878793939177;0.0108339903758491;-0.0124288803089181;-0.0170003483687529;-0.0177372443059797;-0.0260631713845313;-0.0287712748680229;-0.0252657116545969;-0.0340670801270366;-0.0400173495409046;-0.0291271840364805;-0.0366117308109092;-0.0319523046860756;-0.0191657431752689;-0.0138698698977311;-0.00554899147672066;0.010498256988785;0.0263538435106196;0.0405140413881515;0.0636625746439111;0.0846069721300437;0.102617886894;0.125371103723505;0.145495503637129;0.16582678114373;0.187285595793443;0.206916862004462;0.224035780702416;0.242200386401212;0.258881033574804;0.273340914550026;0.288817592315569;0.30294807399155;0.315139474205571;0.326788358692125;0.337491109272735;0.346948784191779;0.355796347613129;0.36383066964326;0.369481614011764;0.374614486681515;0.379174204347468;0.382539906832089;0.386287323323082;0.390339331241561;0.394524502481186;0.398844717164897;0.402637132596274;0.404531225571185;0.40464279670172;0.402886895376624;0.398447452394682;0.394816422427584;0.391867898227974;0.389054020447133;0.386746406038315;0.384835227155929;0.38263454346627;0.380383742990381;0.378706640734318;0.37673147698662;0.375321443308539;0.374282259473767;0.373174069301171;0.371894935824265;0.370509768257384;0.368832826632799;0.366856275669945;0.365135463511182;0.363203894044962;0.360624788045019;0.358637154525819;0.356071045279013;0.353103242264434;0.349443436194245;0.344621616527664;0.339512655518912;0.335219297976211;0.331112697478288;0.326954105521031;0.323138647958179;0.319097553952782;0.314757225439207;0.310407565466451;0.305726131800869;0.300887223108853;0.296172491756131;0.291480523656487;0.28669287374698;0.282415199575255;0.278435114985927;0.274368708722527;0.271134701255692;0.267997442200348;0.264958856113394;0.262368750525384;0.260032856482221;0.257695387602597;0.255604519825366;0.253814024942001;0.25162619673763;0.249764995861237;0.248001056886254;0.245968860944576;0.244074708142778;0.242017310819626;0.239804374046389;0.237666833947576;0.23547776596161;0.232959812707663;0.230712422617692;0.228786496678454;0.226647700859299;0.22485562195503;0.223187859957821;0.221318582640312;0.219713514499191;0.218234360326545;0.216560320618246;0.21496109732599;0.213636138570292;0.211982384914338;0.210274641102205;0.209148862387467;0.207670377019018;0.206282027033338;0.204803717931229;0.203093274301587;0.201591149194148;0.200198860171765;0.198316661445344;0.196410704135705;0.194942770098514;0.192922439639359;0.190902566776163;0.188985850684749;0.186733805533608;0.184754740367024;0.182760638888796;0.180432639508744;0.178196252878674;0.176392112166816;0.174473467300107;0.172329604193991;0.170947354141468;0.168907726347485;0.167251716506509;0.166323066021075;0.164710749815967;0.163734258407444;0.163113628139525;0.16225876496347;0.161598274090588;0.16136439543428;0.160798455552845;0.160416942734769;0.160831033882658;0.160140431342322;0.159413999251676;0.159092393249587;0.158121126190722;0.157272905365403;0.156535556129538;0.155127293184542;0.153651257347498;0.152742997628473;0.151174445931935;0.149343841699543;0.148849320723344;0.146469760067609;0.145383503079756;0.145475043926551;0.144412283307235;0.144781926257591;0.14575136175265;0.146154068069682;0.147302974356851;0.149068718633458;0.150001524066163;0.151635044745672;0.154468998149455;0.15404804643984;0.15480617759449;0.155914922459708;0.154152208708263;0.153984211404212;0.154460135064435;0.152162896564227;0.150665180509558;0.149074105527032;0.14641992752387;0.145433945284317;0.145394550089214;0.142343652725821;0.140390001598697;0.140080555431062;0.13501957690094;0.136067829952637;0.135916897948746;0.130212152669137;0.130610554377593;0.127730242569326;0.123584577270104;0.12797216916169;0.127381173143086;0.123279373534617;0.124900867780535;0.123533146754637;0.119449692823223;0.125021028732191;0.126691491157816;0.116320455427912;0.127807586127521;0.120142679036087;0.115660799806568;0.130538986372479;0.125378175341324;0.126043654290169;0.140211648753188;0.130843290577245;0.130048828007249;0.143405344871893
-0.0326912715009663;-0.0121823379520128;0.0167077474651418;0.0329694605732713;0.0304429648706091;0.0367645498398175;0.0414374545408733;0.0374861919108044;0.0305373988391309;0.0240260984459391;0.0162177917179503;0.0129287058775114;0.00337521586931852;-0.00116668366935984;-0.00817120061897284;-0.0163274550096444;-0.0226617469094585;-0.0245903290877248;-0.0251218657051546;-0.0277282779221418;-0.0298993484385857;-0.0274442043447075;-0.0302271941834446;-0.0282368636329267;-0.0222014724507932;-0.0143848530402842;-0.00556099717288802;0.00627960903198791;0.0204982894216642;0.0365956539975356;0.0559877556698959;0.0745664055697584;0.0958011018100596;0.118159601765342;0.139095862870577;0.159861836715675;0.181180624276579;0.201657889156367;0.220957840326133;0.239673207621186;0.257212124350767;0.273457629530041;0.289460144094638;0.30351910806095;0.317353291815837;0.330335172292637;0.342137625321911;0.352788140402232;0.362535888613416;0.371134731397888;0.378024749149005;0.384404784614863;0.389076891608981;0.392834924907078;0.396648493405757;0.399737140922999;0.403308469335166;0.407672320953089;0.411934449835938;0.415257182658002;0.417398195733166;0.417182960572907;0.414472946944296;0.410586731718015;0.40680024650547;0.40344215757274;0.400772792930496;0.398353327914094;0.395940242233954;0.393706792716398;0.391592611342026;0.389592397223022;0.387660304029326;0.386517597183578;0.385015196024415;0.384026814628991;0.382853030570338;0.381338150593637;0.379776574182243;0.378095586968196;0.375984855509135;0.373861734380025;0.371721241440615;0.369547817369252;0.36710842806998;0.364185631647579;0.36018920590048;0.355273158312559;0.350375156674052;0.346042971931644;0.341832285464933;0.33795064589014;0.334034879884876;0.329878049883675;0.325812124127309;0.321446387176479;0.316962873159104;0.312325882057328;0.307520139754258;0.30275225679963;0.29822950652844;0.293935772033453;0.289834213329638;0.286186334361439;0.282666497132265;0.279447445252068;0.27658381854013;0.273973360203863;0.271519763343365;0.269174862067784;0.26698532144931;0.265085813256946;0.263031880346042;0.261012883762413;0.258940156534867;0.257034384837972;0.254963249906418;0.252629059670968;0.250344214111972;0.248139684710471;0.245737078838607;0.243209140121886;0.240881223888265;0.238480199301886;0.236419880258433;0.234468161504802;0.232483485212351;0.230628730453765;0.228788114737247;0.226949700868577;0.225211739716888;0.223525608892359;0.221754083737507;0.220062988031343;0.218275996181118;0.216611522185506;0.215146013639043;0.213556170087662;0.211685733250807;0.209928375516657;0.208343310066707;0.206562710353342;0.204493427963867;0.202521735482159;0.200527734529494;0.19872254875206;0.19650928928542;0.194006269704073;0.191707038936463;0.189679892431041;0.187399046831431;0.185101251109075;0.182861731368541;0.180479161642486;0.178343171510049;0.176467542755512;0.174634908464761;0.172720503343082;0.171280504824915;0.169624104329399;0.16846723848446;0.167441848754874;0.166593409297994;0.165894926244075;0.165217767918914;0.164654782347634;0.164347090129168;0.164324074305665;0.164107797839228;0.163814551460012;0.163463980032822;0.16244527139442;0.161705964863108;0.160922744311361;0.159535384064932;0.158133189564326;0.156895410653482;0.155388952956809;0.153964957478814;0.152717625526705;0.151248389464755;0.150028517119218;0.148835065224301;0.147997199408348;0.148077444226596;0.148300424326273;0.14891393520386;0.149988764297799;0.151196467730953;0.152699785690623;0.15475010755215;0.156766411884344;0.158372025832359;0.159667905292857;0.160422974931587;0.159912608222769;0.159969286025909;0.159538770284759;0.159068839894865;0.158134377168446;0.156598708462412;0.154178036393724;0.152322912993794;0.151566884225485;0.150103002108074;0.148034877206354;0.146843351559401;0.142950550703978;0.142674018034819;0.139667983739035;0.139078394423786;0.137119810346898;0.134184081880992;0.130895359339716;0.13147975584844;0.130291053390461;0.128824999746093;0.128068102674774;0.126424768142752;0.125407332489921;0.125556394938027;0.124974060662692;0.121220921030426;0.124827397776168;0.121443508283324;0.119306998322602;0.127446689654565;0.125630974351578;0.128143989721791;0.12699863763188;0.133940621933218;0.132171732091324;0.134086314864479;0.139976836242789
-0.055601920175881;-0.0518032833462598;0.0120176908633191;0.0115483815202577;0.0203210834314979;0.0382884292375777;0.0298491119845713;0.021978662206228;0.0253237394562851;0.0206435038351703;0.00508145584480324;0.00726476154474165;-0.00253278848441723;-0.0169727844043497;-0.0149516790664311;-0.0215948647725397;-0.0268612107275663;-0.0257260262370425;-0.0286102886443776;-0.0363278185621396;-0.0362439271060329;-0.035928989834386;-0.0393280449825924;-0.0302243585076572;-0.0284520900133911;-0.0248770951593599;-0.0141566542266537;-0.00202689237278596;0.00969493978905825;0.0256128566452677;0.0461300819881461;0.0626777851732914;0.0856281200906053;0.108208841285809;0.127633859252723;0.149849412773051;0.170600950194504;0.189555025488329;0.208828639712476;0.227923533478679;0.244592834071765;0.261669105612245;0.277796390171534;0.291339581553261;0.305403487042929;0.318138707230063;0.329258517515321;0.339896248024927;0.349709188297164;0.357607010684885;0.364378848868916;0.370860848694701;0.375261052175926;0.379012230469737;0.382797454808688;0.385440231133729;0.389017854556411;0.393541457727953;0.397583707673045;0.400618511144475;0.402902929014815;0.402536389857634;0.399609056807013;0.396070383824319;0.39192700276764;0.388384907448679;0.385715550190992;0.383171207605726;0.380685089566018;0.378634456947088;0.376447946461054;0.374194359502163;0.372486569815835;0.370992462266505;0.369334497677077;0.368329097554289;0.367074044223081;0.365440211651206;0.363838699521924;0.362141576926612;0.359900154471857;0.357834246518927;0.355591546296853;0.353285320476132;0.350782689355821;0.347853393746359;0.343816768959286;0.338934299610282;0.334032630678488;0.329506261517277;0.325177332295621;0.3212665300266;0.316670401876791;0.312730176753592;0.30841922365599;0.303706881308762;0.299071321219506;0.294273094925246;0.289194827307534;0.284256392008189;0.279696865536933;0.275029160041696;0.270770152033214;0.267053831283809;0.263430531562274;0.260252628221361;0.257256884721124;0.254393679298246;0.251858274355746;0.249592515127341;0.247326924994456;0.245242335902388;0.243253772894763;0.241078120456998;0.238969628342252;0.237143329552832;0.235049107975952;0.232801003564858;0.230620310422908;0.228314501612206;0.225764796645392;0.223334911885745;0.220802564813587;0.218580130746039;0.216614311271052;0.214441686528391;0.212427034401128;0.210653630361303;0.208880202310554;0.207104890836641;0.205401407050492;0.203683753233256;0.201959867101388;0.20038779126657;0.198641711464761;0.196978558139201;0.195592778496417;0.193965878448741;0.192117404873703;0.190533281472579;0.188970751790944;0.18713983098433;0.185289181915166;0.183384042315318;0.181234543694933;0.179690604482894;0.177476258777562;0.175067986537995;0.172944928550939;0.17083567416767;0.168603282206157;0.166440026337089;0.164145505355618;0.161735144901377;0.159911227460503;0.1580670638913;0.155870150166024;0.15422158150905;0.15274454099149;0.151311515952186;0.150441781579588;0.149466916637571;0.14843163899422;0.147884307718275;0.147583996317508;0.147122674533057;0.147095434922821;0.146974309428589;0.146268457097289;0.146770641310048;0.14642102268316;0.145373306089657;0.144874371018337;0.143784774714728;0.14236685872628;0.141508760676972;0.140567227163723;0.138909788248909;0.137638290939479;0.136434835469806;0.134289917450341;0.134063547121938;0.132622680327972;0.131785073139649;0.132067529814703;0.132678381797192;0.133000293476241;0.134013462289391;0.135274197983742;0.136946545493548;0.1396380929145;0.141504188696379;0.142255240185155;0.144026738323696;0.145826271132862;0.144658050823369;0.145919242346027;0.144699197305395;0.143074966367526;0.142893878237047;0.141513152229966;0.139734901118668;0.138803000321144;0.136646680841556;0.133616004220547;0.133074923304923;0.130973327399873;0.128096391069066;0.129270086539301;0.125742229345616;0.12250857736358;0.12404171635782;0.118883935537691;0.118400588919889;0.120212611305167;0.116528106199078;0.115192858733235;0.116401016909069;0.11243293896538;0.109799538060906;0.113382671060499;0.108679074536094;0.108231630421543;0.116412372794487;0.10758708704734;0.117388327293826;0.123048925008402;0.104497564385218;0.111496226617225;0.118150765450266;0.111589486915404;0.123733246281782;0.12752042939015;0.113738778308502
-0.0431417340644205;0.00474618685625721;-0.0386010891291333;0.0243634090374027;0.0438455978472984;0.029499473944283;0.0362816653311116;0.0335751526086624;0.0178390736704787;0.0129942127472291;0.0135738239910369;-0.00376977063584621;-0.00096826510128425;0.00305945497570612;-0.0191108877069938;-0.0172395801993474;-0.0170851174772157;-0.024658858370774;-0.0261952576366445;-0.0248188547149268;-0.0351574682959502;-0.0357382378463065;-0.0291007852670274;-0.034635674756171;-0.0283271984675686;-0.0167547168469028;-0.0121612233677421;-0.00104105798609357;0.0167285090389287;0.0306747770564962;0.0456056105624698;0.0714185879564905;0.0864647150330977;0.105290370140703;0.128158165328724;0.146903343635163;0.166418619479911;0.186752031471114;0.205047652914821;0.221823778401562;0.239798414505596;0.255356827219436;0.268771389255074;0.284672760841774;0.297705374183261;0.309311319523069;0.321100028324495;0.331725280659562;0.340786176072784;0.349281500412048;0.35663448726645;0.361846327715259;0.36715181627918;0.371030321307839;0.374001864172556;0.377627317509761;0.38148385010101;0.38537852198526;0.389691459701005;0.39365647605716;0.395156758423589;0.395252134844714;0.393415402531951;0.388570603851912;0.385099094587666;0.382032909379311;0.378953922187329;0.37668174497821;0.374741376073894;0.372134377849037;0.369984646319889;0.368465018430608;0.366150643347068;0.364964652364274;0.364065303676012;0.362819289863896;0.361686992542204;0.360381449508742;0.358568329477763;0.356606746960397;0.354799257674526;0.352342845794928;0.349894903322053;0.348065127884504;0.344945741922412;0.341824747746351;0.338014955522125;0.332790600489794;0.327438987665663;0.323177035600832;0.318727910716467;0.314263992331805;0.310373928697797;0.30600974098139;0.301472680424071;0.297125400508988;0.292397636209758;0.28739734949031;0.282541704184529;0.277790873809689;0.272953746561863;0.268736150584309;0.264565029503154;0.26045075525142;0.257176083826422;0.253984683384402;0.250892398038648;0.248275972157251;0.245822051248341;0.243354764820664;0.241312197803244;0.23938860940871;0.237077729695701;0.235247333967628;0.233329404222251;0.231316622028623;0.229450701394133;0.227358485678989;0.225083958723291;0.222914584577782;0.220664813303358;0.217972002712121;0.215725785725745;0.213715056188059;0.211511331038371;0.20967999526245;0.207845836459302;0.20589322626131;0.204259882753377;0.202710848881058;0.200947076291453;0.199302369200244;0.197920674834356;0.196140392528324;0.194675070133579;0.193304132842264;0.191736077446232;0.190429242978754;0.188852528823982;0.187081030972412;0.185578388294993;0.184128903168856;0.182219585631226;0.180355267194713;0.178868399399341;0.176710874496426;0.17480998447567;0.17291291613637;0.170505051001083;0.168754933149027;0.166856905808055;0.164437643554903;0.162240213373759;0.160471675422469;0.158379718293212;0.156492899247269;0.155278718719063;0.153125610796093;0.15183626379655;0.151159498810693;0.14992092297905;0.149255217490691;0.148816405299643;0.148151106631597;0.147884246670676;0.148182566606864;0.147964653796031;0.147942428925676;0.14870482956333;0.147929180024838;0.147893159710978;0.147928264217134;0.146856445569447;0.146160999880422;0.145225719331757;0.143688692071712;0.142516612452084;0.141745907917254;0.140168106508957;0.138754577719554;0.138477716102547;0.135888036173025;0.13528321175648;0.135794931419956;0.135054011675009;0.136149346731536;0.137512144443681;0.138238345920726;0.140032889491038;0.142610385536847;0.144139418382532;0.146139961568454;0.149675592721505;0.149518448161893;0.150482926996585;0.152892482360965;0.150379640966363;0.15139957611627;0.151028687320653;0.14787808090737;0.147258349580336;0.146248265031339;0.143655016780442;0.142929848402399;0.142175220356704;0.137970882827633;0.13706109499358;0.137615932438106;0.129588719971632;0.133141422501731;0.131875733481548;0.124337683816849;0.126736959098974;0.12479515363736;0.119560633600229;0.122135715995854;0.120840616029306;0.115751670547264;0.117867300662873;0.119220009697428;0.115075103117996;0.12217662416867;0.122551190736913;0.104113515091099;0.122317386926722;0.11676835997614;0.105177758629123;0.126211344997704;0.112556395931582;0.111025682765872;0.127141728863352;0.114086423787022;0.122255977447761;0.143357554298178
0.00257800841023012;0.0022761854373698;0.0398449974986077;0.0420505834640013;0.0398914123678936;0.0513111883443658;0.0518534636481954;0.041531777208437;0.0343903103222126;0.0292434342158201;0.0172871421796352;0.0130140815376378;0.0115488721180881;-0.00354410852105147;-0.00691807221078773;-0.0133252154976854;-0.0219257341066782;-0.0237087436292172;-0.0232434031614618;-0.0276712335780458;-0.0321213337990061;-0.0310976810265212;-0.03265824037276;-0.0334458717724238;-0.026911422217219;-0.0234977358666754;-0.0160889755679877;-0.00546365571618043;0.00563295253272701;0.0196172071852053;0.03927827942829;0.0570941094624457;0.0773905769164583;0.098725952277663;0.119157493812274;0.139563644353456;0.160364855687245;0.179993524025327;0.1985132811194;0.217039963978809;0.234708841975684;0.250537484431945;0.267154246230515;0.281319647749086;0.295031788568293;0.308285041669803;0.320169341245572;0.33116613368473;0.341461851680969;0.35029167233504;0.357466730150802;0.364186435285334;0.369793600427815;0.373940628877159;0.378225780293363;0.38175688083804;0.38574384122371;0.390823012793211;0.395840824772128;0.399443965786241;0.401833925738908;0.402604536799966;0.399691353326326;0.395943592566548;0.392625087377975;0.389302050676268;0.386914148824605;0.384855454128271;0.382526179420666;0.380486671733679;0.379084373118397;0.377207993503238;0.375501532936669;0.374507487948098;0.373178274091452;0.372191777631962;0.371314216188504;0.369893031515459;0.368269366684642;0.366876389914239;0.364834550824617;0.362901311516072;0.361160752902202;0.359003479314455;0.35676936396735;0.354158082712505;0.35047958333755;0.34578484518513;0.341024681059947;0.336794603642264;0.332666984984976;0.329144057827964;0.325086159493037;0.321041722328854;0.317190447004955;0.312737939897237;0.308252716986701;0.303679702025998;0.298874564529376;0.294117565581932;0.289687373260047;0.285451890303343;0.281337992229059;0.277823808352845;0.274417642000421;0.271262260375307;0.26850454966322;0.265985249007241;0.263629317098572;0.261447505990795;0.259403801824106;0.257535680751589;0.255754674508223;0.253908619100737;0.251922577064379;0.250273730504897;0.248377138632401;0.246287361451989;0.24428289044236;0.242184608830188;0.239778876837795;0.237470727217639;0.235377692980306;0.233230122218952;0.23134902547813;0.229543597294078;0.227761198616195;0.226149658477547;0.224582533736605;0.222968209928638;0.221415395238675;0.219979016661432;0.218479351356715;0.217022640664723;0.215607115160873;0.214139795352708;0.212835839469133;0.211443978360699;0.209847749006976;0.208386955602438;0.206962252880573;0.205326006367772;0.203602750734025;0.201891490693551;0.199942698142971;0.198312958963979;0.196458765014186;0.194111847784682;0.192008999234095;0.190136654721515;0.187903751550858;0.185743944933412;0.183752401126296;0.181529768982062;0.179483216616599;0.177703024938698;0.175573779880644;0.174039101101199;0.172549562824182;0.170988943763939;0.169819066649787;0.168860377130526;0.167782929034135;0.167009160176121;0.166575691340417;0.16596161826316;0.16552391617554;0.165498549214632;0.164867395537319;0.164740005524075;0.164548324465986;0.163603845498574;0.162488453844084;0.161500562625185;0.160253351347352;0.159174338808305;0.158046815698789;0.156350387145461;0.155000245743542;0.154090339996454;0.152316437195911;0.150707391674142;0.150383447744314;0.148758901066295;0.148543755960766;0.148637861186079;0.148731313971919;0.149609700307015;0.150748009200509;0.15171387060937;0.153197909736562;0.155024262122635;0.156078442722887;0.156738622963137;0.158287792920193;0.157240904731502;0.157568945033376;0.157596100426283;0.155958455504143;0.155568865637684;0.15421359068427;0.152344561361945;0.151239161214876;0.149819058226776;0.147533791771946;0.146051441572156;0.145162803878614;0.141962227378018;0.141140930272852;0.140895102016267;0.136790785221526;0.136354572951239;0.135588307807529;0.132310118391042;0.133557524367871;0.132400652777673;0.130253359801473;0.130844112358155;0.129751988762839;0.127716547142608;0.131623096520647;0.133134223339425;0.126852336466458;0.13253587101221;0.126652480900286;0.122221679400113;0.136881127707828;0.136021315207499;0.133049966606929;0.143874708944772;0.13992085016665;0.143861825494606;0.1550657198761;0.153098609919833
-0.0741022655150048;-0.0135092285049927;-0.0064476431770104;0.00337985533228236;0.0316921587872933;0.0242570815501063;0.0247514150881098;0.0309983560637646;0.0216048092458305;0.00608635217029904;0.00506124364918955;-0.00464246097738715;-0.0160257774883724;-0.011938190677952;-0.0170846999359507;-0.0287306274129229;-0.0328278003634341;-0.038248090779316;-0.0426266955370278;-0.0399111910261;-0.0390439187426639;-0.048773807010719;-0.0461266576404817;-0.0416985576235047;-0.04269755448349;-0.0310730189979677;-0.022232007546879;-0.0145146585220355;-0.00062796988859114;0.017319049630429;0.0329836577993765;0.0533850524146935;0.0767033820611887;0.0955256281242574;0.118511204936776;0.139712134872586;0.159291770941864;0.179625711249599;0.199595561327024;0.217124800928172;0.233995313724632;0.251355815669149;0.266817425694614;0.281361982333644;0.295251495606525;0.307530543546243;0.319420479833255;0.33059757091733;0.340322109561348;0.34879120720112;0.356447545948909;0.36258372650335;0.367366090150368;0.372002724652633;0.375790636527423;0.379017843444739;0.383158614569044;0.387570714649793;0.391825609155444;0.395784750395223;0.397761984426934;0.397574595063781;0.395785722721578;0.391546818479209;0.387853222482043;0.385164981076795;0.382555206595804;0.380094275902209;0.378028897458265;0.375967411466102;0.373675546780525;0.371936248304429;0.370148379563747;0.368691512462099;0.367567207169371;0.366483269716946;0.36511089961127;0.363658665149466;0.362075893104619;0.36011665133129;0.358125789188828;0.356139179841385;0.35365617721471;0.351461720888363;0.348882355579283;0.345786963511616;0.341983926350574;0.33716541827151;0.332017530781447;0.327552814140876;0.32351810338636;0.319318095845327;0.315088422468273;0.311228168385003;0.306788092022088;0.302353394363555;0.297772009197749;0.292809273466697;0.287832666696618;0.283189952393797;0.278564259438183;0.273998824108397;0.270134261047673;0.266127815278026;0.262677008972784;0.259599962786241;0.256671516574445;0.253983280438908;0.251551474446409;0.249226018487542;0.247033433228357;0.245255322101626;0.243258031116184;0.241160899641319;0.239321162471635;0.237490536505818;0.235470147655134;0.233447814307837;0.231360788972334;0.229149092497773;0.226855820432922;0.224404987377767;0.221954802800208;0.220072935930169;0.218067498038259;0.21608406351074;0.21431810202335;0.212556387487015;0.210871302047392;0.209327381669341;0.20775459430934;0.206136587361348;0.20480246519422;0.203196785931737;0.201387054885329;0.200268967917495;0.198963159588148;0.197389969600692;0.195853545377367;0.194272063165055;0.192714999981268;0.191249230024396;0.189625855181755;0.187719035436801;0.186034520854254;0.184386061976791;0.182352142153712;0.180345465053703;0.17825890327559;0.176224868588515;0.174287887365028;0.172103366539687;0.169808215277664;0.167921060007091;0.166227406218725;0.164132956944678;0.162743848380963;0.161092566662232;0.159553318788857;0.158685212861038;0.157664589498544;0.156667227296415;0.156148559464843;0.155760228890232;0.155350072786624;0.155369512436624;0.15551766742628;0.15505945130912;0.155525868675521;0.155616900515249;0.154989013732651;0.155003658843073;0.154550013889652;0.15331472576368;0.152500695935985;0.15154225794205;0.150001524066163;0.148917729155869;0.148079337548224;0.145975216968208;0.145418890920401;0.144498168000139;0.14288814501281;0.143148751247559;0.143262411734065;0.143488190297425;0.145011043452215;0.1464430481396;0.147843102540794;0.149977661150564;0.151807494908838;0.15308748876555;0.155974626032116;0.157362182756032;0.157116293154372;0.158761447953162;0.158325623795877;0.157442928779337;0.1577789285048;0.156335198573943;0.154146077181209;0.152788621754601;0.150900251188318;0.148896128549364;0.148454561319924;0.146709693436784;0.142729213960482;0.142425331290595;0.139552145794003;0.136088207712971;0.137242983551667;0.132294569816422;0.129405679025499;0.130600287750659;0.128551299783447;0.127792547642619;0.127947387351884;0.124797411228026;0.122125245043587;0.122339144195491;0.120851973870617;0.123312774494586;0.12925002619015;0.119307112642377;0.116665458958423;0.127679018058891;0.118436697188476;0.127454610542516;0.130207405014611;0.118703523662572;0.128821669452656;0.132861215339213;0.130475758226972;0.140093926816736
-0.0356566327948876;-0.031636661388582;0.0149964840280242;0.0294373321024536;0.0299046596132373;0.0410124921721476;0.0390072412708945;0.0305673126466619;0.0277342444088147;0.0240330293649249;0.0109299555283669;0.00485232224505828;-0.00145158931854577;-0.00705824702640458;-0.00916183656313955;-0.0141436226828957;-0.0244175216308611;-0.0305527686730891;-0.0311761050550471;-0.0326646856682232;-0.0357378378589409;-0.0324366251629992;-0.0332073585917062;-0.0326276239129727;-0.0232685138249337;-0.0203384898773726;-0.0126373189132018;0.00056003623573378;0.013774207968749;0.0278651354155518;0.0482371877926182;0.0680947415575685;0.088309734801426;0.111953792575458;0.131761837487716;0.152265312620231;0.173184805710922;0.19331131736464;0.212310253019417;0.230477268704233;0.247668545901378;0.26324521315301;0.278980487873326;0.292707690931362;0.306111495449365;0.318901107870389;0.330221914899995;0.340484543023624;0.349999700689494;0.358449745905988;0.365765539096323;0.372089772917639;0.376986740398108;0.380794769443254;0.384655754045643;0.387654578238054;0.391390538550871;0.396118926678423;0.400661337419576;0.404097561166694;0.406294686703274;0.406060766886115;0.403500109256619;0.399705307130092;0.39607946492565;0.392804987893737;0.390257081054403;0.388009401767339;0.385831576256572;0.383915579701774;0.382011766797547;0.379814686119665;0.378094031108684;0.376746056471864;0.375521639160299;0.3746145895776;0.373430533421323;0.371898412465705;0.370266635795862;0.368433367382347;0.366100796581882;0.363863492709185;0.36180056906164;0.359446120404245;0.356820126370654;0.353872427755948;0.34988401673389;0.344918257770255;0.33985112984107;0.335329166440349;0.33112796429495;0.327020034662863;0.322721264331086;0.318584717798737;0.314524381865378;0.309931213497452;0.305303477223347;0.300487466571687;0.295461966737459;0.290597904673512;0.285986098913608;0.281458039037527;0.277159178856588;0.273303673423885;0.269825920103428;0.266622792836626;0.263739863691381;0.261019854574132;0.258431331968219;0.25605764576444;0.253844800846081;0.251650926136284;0.249715675584479;0.247629985877497;0.245622763258713;0.243755922436067;0.241646542453528;0.239370371326558;0.237139205841383;0.234891323273112;0.232440761506344;0.229878806516361;0.227446682416809;0.225321608915386;0.223235492068504;0.221211166883078;0.219199758839298;0.217451058509383;0.21567768562973;0.213822054724552;0.212080535349985;0.210478302312761;0.208879148517709;0.207298460885349;0.205644353170872;0.203941784764258;0.202492728298408;0.200918174087633;0.199121259576443;0.197471053228679;0.195898339973293;0.194175003213017;0.192346537981987;0.190426684417189;0.188496243034359;0.186541711951111;0.184506728175699;0.182165147414627;0.180013375588221;0.177964845548523;0.175732831764091;0.173494098574634;0.171236246046418;0.168886517873191;0.16686270924822;0.165054136717252;0.163188431323716;0.161408352238204;0.159918445129941;0.158481296570381;0.157391321977493;0.156398010495797;0.155604161123196;0.155030095758861;0.154576547195357;0.154172585819042;0.153806562884848;0.153883865104267;0.153740845158195;0.153814422450119;0.153410921700136;0.15265435606098;0.151813347097759;0.150766199218413;0.149524943651204;0.14828184846191;0.147050465882097;0.145609780042508;0.144110489133396;0.143079253034744;0.14107283435108;0.139962029801204;0.13911494735358;0.138404720493753;0.138112860686748;0.138433988945257;0.139192011727286;0.140372001015858;0.142251262947904;0.144163628440314;0.145736417874828;0.147840233585127;0.149406936987242;0.150976791844955;0.152118694325861;0.15201261497946;0.15267083609746;0.152589614706014;0.150852181945557;0.149661310075126;0.148401994580438;0.146742936670963;0.145291071260495;0.143449696328905;0.141082870766638;0.140042002574447;0.138888739502366;0.134729982420478;0.133179308584591;0.133157178461859;0.128720020150048;0.129787062388232;0.126567437895576;0.122678076659157;0.122995886104068;0.121654543172731;0.120506495720169;0.120905726876147;0.118816215206209;0.11591639742978;0.116542078068254;0.115944415722402;0.114856207822608;0.119160236550844;0.118272608432139;0.110949532453653;0.116116762301285;0.112776950171655;0.116295648453416;0.121509226641162;0.122059203316355;0.128337412911892;0.134693855905757;0.128478844315717
-0.0648456860253581;-0.0289464218790033;6.55834184401119e-05;0.0112739566102829;0.0283967442843282;0.0314508849511095;0.0283170982069393;0.0259339755393811;0.0211229330868027;0.0106478205716746;0.00099136548439565;0.00029033602884951;-0.00803181095975953;-0.0114477920051946;-0.015926148595472;-0.0251747377028129;-0.0278419368109868;-0.0303094207281945;-0.0335793498006484;-0.0352888197876736;-0.0387973402030101;-0.0437288171932058;-0.0423581139261322;-0.0377761833202844;-0.0364927578336774;-0.0289663297132206;-0.0189949203900686;-0.00837146828245104;0.00526226501621004;0.0222458123133942;0.0392165288731665;0.0579906565045721;0.0793644353465442;0.0990854591554058;0.120644883347942;0.141782144299191;0.161965502834451;0.18194680247512;0.201519100893103;0.219585972677865;0.236240571564236;0.253173835522134;0.268586115849326;0.282965013438428;0.296949743741999;0.309319021792998;0.320945684588729;0.3320156651283;0.341763210507648;0.350049969625069;0.357746148830163;0.36396960748176;0.369211616979523;0.373584895230349;0.377083589438967;0.380223297893764;0.384308183202625;0.388953507991585;0.393271015966039;0.396844147428035;0.399140318632847;0.399215012697311;0.396985718600876;0.393408848232617;0.389365490846755;0.386447804331333;0.383915369454787;0.38157992981725;0.379544018063302;0.377504450614848;0.375301243291958;0.37354968687634;0.3718858353358;0.370412641605987;0.369218629086371;0.368310031460501;0.367079403878942;0.365727329719419;0.364270825526324;0.362429523237169;0.360606854231997;0.358791505093635;0.356386664275635;0.354397565293532;0.351854944779735;0.348958973800785;0.345193562217913;0.340373172550927;0.335357178416487;0.330964804703439;0.326802460381747;0.322740713224823;0.318631478708543;0.31455484698184;0.310177396504566;0.305586547115104;0.300961208865818;0.296062906359564;0.291081348880522;0.286349712960719;0.281662676606833;0.277125225980753;0.273138204984344;0.269149921566254;0.265605701204752;0.262508624096997;0.259589935509956;0.256880570132624;0.254407020064391;0.252084112712627;0.249890598759284;0.247907279459986;0.245960673792521;0.24378523242255;0.241941418512969;0.240039426212156;0.238026330151163;0.23588479270955;0.233661971018319;0.231460384527543;0.229188033627455;0.226623549928333;0.224228750834108;0.222160322880633;0.220133276981878;0.218147225094913;0.216334562241621;0.214530572429259;0.212743755663576;0.211056179329162;0.209403269315254;0.207721031551648;0.206168771205451;0.204599708621431;0.202879326791307;0.201386295322555;0.199970434276763;0.198458476524849;0.196732485714417;0.195062118427627;0.193444659270381;0.191804629537273;0.190062176148506;0.187919884477976;0.186000595870224;0.184265628440747;0.182098892627353;0.179859319713572;0.177705444241731;0.175534156130925;0.173315215253211;0.171054812878105;0.168712916435921;0.166475324471403;0.16459412734051;0.162513014199463;0.160580784343447;0.158881272999012;0.157291620279104;0.155928292859052;0.154792097378855;0.15366839391776;0.152818443631603;0.152176830140965;0.151597053325864;0.151353174614955;0.151448998551814;0.150991671193214;0.150755014725305;0.150707944686057;0.150111531270366;0.149606268045882;0.148648563201494;0.147637013249511;0.146565060194365;0.145341259965071;0.143962786334058;0.142596574595729;0.141365006956284;0.139762342022437;0.13830516279446;0.137482103610635;0.135885898340012;0.13547301883361;0.135521017575146;0.135794515818486;0.136661731622632;0.137695355052577;0.13882410469974;0.14065697781437;0.142847893874713;0.144417673313826;0.146360002183935;0.147534279759037;0.148021686551879;0.148514226165699;0.148952794184256;0.147619197862207;0.147911596854334;0.146885558318025;0.14500303837946;0.14365054306032;0.141979992878117;0.140133143927504;0.138987175080998;0.137116892256493;0.134946804639955;0.132529094368786;0.131370841517447;0.12853203163796;0.128228291803401;0.125941550291151;0.123916049008766;0.122891441461646;0.120880427140827;0.118679835897471;0.118514057708012;0.11771117202138;0.115405975658838;0.115053763330287;0.114999428021471;0.113046969152454;0.115373857008575;0.112752907810578;0.11394130244172;0.112417017034846;0.111954354578136;0.113256160558756;0.121091303315921;0.120506381084243;0.11975250221228;0.123999360954222;0.122619380832469;0.129055436262536
-0.144021882264371;-0.0522806077626851;-0.0167643274938866;-0.035507784096735;-0.00675818350645897;-0.00811280733849877;-0.0151559748679507;-0.00377622870320816;-0.00299928021557704;-0.0202245080789899;-0.0201382765169377;-0.0223004973860548;-0.0518302648143975;-0.0399020791981201;-0.0403170676428191;-0.0539787667540043;-0.05512593907255;-0.0583402200434319;-0.0660783255792716;-0.0658037125750216;-0.0614943231541923;-0.0736663051885613;-0.0686918725504027;-0.0641212805119569;-0.0712868370602324;-0.0622317753911282;-0.0517273407876833;-0.0438532837058818;-0.0313450324254117;-0.0148001780374795;-0.00288755771302239;0.0153138494343928;0.0399238819226247;0.0564227880526621;0.0772467314465071;0.0984568986469013;0.11673676546314;0.135419983130498;0.154780374551977;0.17172959665377;0.187198705790151;0.204110532510816;0.21801217850244;0.231439368408114;0.245384823388765;0.257324583730049;0.268626501617293;0.27934637864659;0.288676414133349;0.296850199156911;0.304710471270878;0.31089670228424;0.316030390819772;0.321092387155495;0.324919380247142;0.328330086701997;0.332773219313466;0.33760042016362;0.342116810724138;0.346253921438903;0.349014457710396;0.349158535573832;0.348150992848231;0.344808338551561;0.341349181938035;0.339024634741208;0.336839971333125;0.334841878056364;0.333328920189826;0.331898051877196;0.330290664839515;0.3290952246973;0.327823698933;0.32649988149415;0.325917890389817;0.325348619973115;0.32447763765043;0.323703288261048;0.322823905882241;0.321372196178814;0.319973952302236;0.318812600381454;0.316934851518247;0.315707549139285;0.313789476455608;0.311250043912012;0.308087863204033;0.303975706967458;0.299486739382351;0.295575260432462;0.292015823574388;0.288277867282059;0.284424062046789;0.280985266586137;0.277079028025521;0.273123868983559;0.268972473718877;0.264382020503814;0.259783889886071;0.255524807925816;0.251186574138402;0.247046779921209;0.243576451430602;0.239932335307719;0.236735496663748;0.2340612685119;0.231406884224416;0.229061064551698;0.227048802626589;0.225039842168843;0.223079400223132;0.221545645481868;0.219875822589911;0.218073166715563;0.216666234441717;0.21497199772234;0.213168680696612;0.211407444079641;0.209533272666439;0.207606139034765;0.205722040948611;0.203559583336884;0.201289427431914;0.199663439628126;0.197991443448589;0.196255703083324;0.194756736497821;0.193295931787464;0.191838403018783;0.190489104154891;0.189137338416447;0.187717897936031;0.186583220462823;0.185306149583148;0.183648250755313;0.182689001856211;0.181514333428117;0.180181361391935;0.178926819139945;0.177542531019209;0.176071303682709;0.174719905027638;0.173254438886998;0.171317422802089;0.169819130859896;0.168449827964213;0.166241288957521;0.16451369004264;0.162516423715913;0.160501903893243;0.158776408626506;0.156758810253888;0.154435592080633;0.152571903547616;0.151022538243757;0.148842651783568;0.147361444630666;0.145836478763998;0.144133123988568;0.14314989857462;0.142090697349445;0.140728971841725;0.139998477334722;0.139537473595117;0.138813343132085;0.138399105955074;0.138264438507739;0.137469706412243;0.137479063880205;0.137541889299882;0.136377936731687;0.136077097853371;0.135333977022945;0.134024637743139;0.133349364562604;0.132480305657372;0.130968160408608;0.129848609101091;0.128731352284729;0.126590804170669;0.125950836757461;0.125222394566966;0.122932190328919;0.123103527255519;0.122533914541068;0.12159724967114;0.12247978691062;0.123181781303564;0.123469602980663;0.124795443071405;0.126033378952697;0.1261422402215;0.128232201016635;0.129621907329902;0.128566539740333;0.130202833248193;0.129000431300633;0.127321372476176;0.128410895457872;0.126845182643596;0.124777672178716;0.124329588273865;0.122067256647866;0.119224067255073;0.119509334264911;0.118203786037725;0.11543577392055;0.116492553794915;0.112347259980294;0.107630264270476;0.112055976616542;0.108109675108811;0.105945257345036;0.1075100909009;0.101641546260491;0.101298727199177;0.105953183627943;0.10221406294569;0.0987848316888732;0.103217194693652;0.0979061231464488;0.0941445093875854;0.107928504617827;0.0989832813765029;0.0998422572139974;0.109053171709361;0.0890005778594655;0.101503321797615;0.108023786530287;0.09458517110426;0.104917121054037;0.112160602460186;0.0992522793473682;0.111140886892039
-0.0477715874845333;-0.00625676030322563;-0.0282091897437615;0.00273409004617822;0.0402850193745965;0.0263494134754625;0.0283264621218988;0.0340957621534595;0.020548510175028;0.00814536144612064;0.0148109032955446;-0.00159051044365797;-0.0128431276968477;-0.00150136367744013;-0.0184104561902468;-0.0247487097279382;-0.0217906905554981;-0.0281619772743126;-0.0337232349737369;-0.0309193551449677;-0.0359773643360719;-0.0433044992558144;-0.034026122208136;-0.0358750119226739;-0.0341542032436303;-0.0233915762454945;-0.0157490206476273;-0.00566903350608806;0.0102414802190689;0.0256258018809142;0.0383861504441472;0.0608401624296231;0.0821357549143499;0.098729713779126;0.121676612094403;0.141049577201716;0.159574766179386;0.179955138146382;0.199338930076262;0.215755190782062;0.233223657785724;0.251143209350172;0.264520787275695;0.279759553148876;0.29399225919941;0.305437969451218;0.31764703572014;0.328909671814717;0.33768641435561;0.345802947580955;0.354120880993936;0.359622627286413;0.364362065805339;0.369748116004535;0.372483805209729;0.375882575282853;0.380220692062352;0.384239796501052;0.388306424661987;0.392560418641434;0.394226211976412;0.393563491591063;0.392703818206798;0.387735276446794;0.383714735105333;0.381101205874234;0.378054929003339;0.375308045233437;0.373363119978518;0.371144734855128;0.3686372121338;0.36723506500336;0.365178453679425;0.363213816710691;0.362468444139132;0.36119826329951;0.359748094145306;0.358492079300977;0.356822200447147;0.354545896656543;0.352896476762238;0.351260903198825;0.34812959762214;0.346460440886572;0.343719585927644;0.340525256011855;0.336876287764845;0.331997941823121;0.326659989856948;0.322345149794183;0.318486689989611;0.313866409107819;0.309964727328924;0.305967745655958;0.301306294826922;0.29697082568721;0.29231845442171;0.287196555042907;0.282272842734937;0.277703362397298;0.272841318293643;0.268389399776903;0.264676134098486;0.260345471711376;0.256956685907514;0.253993880583765;0.250896654429754;0.248299742237496;0.246034975939938;0.243594562611789;0.241372837824499;0.239693796393947;0.237415055950317;0.235388744684329;0.233771246496273;0.231659718220262;0.229765051078899;0.227834652762209;0.225572895081275;0.223340867630178;0.221272967454804;0.218717653681893;0.216272245577107;0.214564238533005;0.212211484308263;0.21031291281666;0.208664368661871;0.206855742187402;0.205188618452841;0.203634816754866;0.201963324232984;0.200352657499987;0.199050100591188;0.197447787179139;0.195458775519485;0.194463122040302;0.192865085933578;0.191383694657317;0.189984078194292;0.188273352641723;0.186657705487905;0.185272015302197;0.183478388754845;0.181413224328252;0.180038355665264;0.178104159455965;0.175898583626037;0.174144798394099;0.171780162264057;0.16964919993733;0.167796733763401;0.165463838932161;0.163038964268162;0.161299098195889;0.159455752802642;0.157129950036081;0.156051195437483;0.15411814576447;0.152451462144561;0.151662878494744;0.150297987473742;0.14921976062323;0.148815977048489;0.148162957306194;0.147482312213917;0.147649826137387;0.147476091164019;0.146914490283965;0.147706268357878;0.147319679346118;0.146536577505675;0.146306958427004;0.145272745029247;0.144180878929887;0.143672791204844;0.142477239822723;0.140908558579605;0.140160729949608;0.138775859086867;0.136545919482521;0.136440840891704;0.134981174383711;0.132835268454056;0.133392405599421;0.132579715503946;0.132434173548026;0.134085072956836;0.135001382692471;0.136056542391947;0.138252616042961;0.139616769254936;0.140634763551538;0.143743170558167;0.144626299796647;0.144020506069507;0.146548505925733;0.145414641799213;0.144033696771424;0.145266737591941;0.142689460122556;0.141017367806271;0.140767345510977;0.138125694096137;0.135988051012237;0.136598557535911;0.133301369095411;0.129730325334225;0.132779075173944;0.126015557333695;0.124585538279428;0.127556837904857;0.120237643035724;0.121514109958026;0.121146463611175;0.115796007404266;0.118047707387906;0.12023649738726;0.114040397564743;0.112568158248442;0.115426029777298;0.107689584311123;0.112361716771975;0.121802667821391;0.102112684867357;0.111028655029656;0.120937109774912;0.103432228909696;0.122249762164354;0.120742308543275;0.106465816839867;0.122694148833223;0.118226079421963;0.112150650395181;0.135049862762386
-0.107236772933299;-0.0647285901737567;-0.0439953753535773;-0.0275045396694171;-0.00146890278606561;-0.00320022210102885;-0.00785441875803535;-0.00817972452875358;-0.0107285260880337;-0.0160153133427562;-0.0198724263222956;-0.0292611838103678;-0.0388168015690157;-0.0367330656435016;-0.040435393393328;-0.0462523910397641;-0.0480722241119092;-0.0545797343898936;-0.0617505772216209;-0.0629371707932043;-0.0637246857437554;-0.0672267572695048;-0.0626496612116889;-0.0615060086148945;-0.0618424903616237;-0.0541812262882282;-0.0455439823488775;-0.0355081842960373;-0.0220198680726421;-0.00704927377479278;0.00694677884917578;0.0239097122524192;0.0443178767943092;0.0624565826483399;0.0821038536647735;0.101580796705169;0.119468676554588;0.137201941789843;0.155167705412957;0.17208548691052;0.187937892477883;0.204209977796394;0.21766033616225;0.231060069115484;0.244763797997252;0.256492430267278;0.268024490162795;0.27878346406811;0.287889882415613;0.296105586412189;0.304110750824789;0.31035724440714;0.315605767163217;0.320280914813434;0.324125098094149;0.327554106745804;0.331882944473865;0.336666260441216;0.34133860277811;0.345579512852101;0.348093199116446;0.348172195492173;0.346648823658714;0.3433754032478;0.340207168487588;0.337932962410694;0.335852009740468;0.333818915501208;0.331991132535036;0.330293173489056;0.328720495065678;0.32757395794757;0.326292141835277;0.324995740120107;0.32427755214067;0.323765247667337;0.322901999110796;0.321947029682521;0.320916222721021;0.319478296676782;0.317956511658941;0.316536167040501;0.314786541387519;0.313293409320726;0.311367087806813;0.308924699492192;0.305795940971095;0.301564419702564;0.296974525889288;0.293200912378272;0.289888899610105;0.286187257705994;0.282338732093531;0.278850889470065;0.274930016023083;0.270966814991374;0.266885909046635;0.262451079741656;0.257945597781424;0.253642576851738;0.249282607834744;0.245190242229965;0.241709805333717;0.238124460396038;0.23493205085644;0.232107275380753;0.229535345624951;0.227313551086855;0.225336785597705;0.223361640743897;0.221434919438;0.219863501472852;0.218149521680648;0.216477953110276;0.214987173239502;0.213497161937425;0.211803336980258;0.210034726818064;0.208186236474572;0.206294387810727;0.204433065454912;0.202468153322253;0.200398538633452;0.198730647034446;0.196980882175722;0.195317391689514;0.194004368854884;0.192630738996293;0.1913086646001;0.190010311082766;0.18864259800114;0.187376380996408;0.186333761988604;0.185207879387619;0.183742654615371;0.182710233761169;0.181633808370883;0.180409873774244;0.179283015146287;0.178081973554697;0.176810111585693;0.175541117677385;0.174041564917027;0.172228931962883;0.170990682116607;0.169725971976524;0.167778902737421;0.166065876879098;0.164148357317761;0.162273341768486;0.160581035778146;0.158700108321358;0.156662119155882;0.154882541252339;0.153212927179946;0.151319145895781;0.149769943545731;0.148672108563749;0.147044433803999;0.145980322504494;0.144884616927704;0.143767237593047;0.143163606348157;0.142745140646392;0.14221667457183;0.141783288021595;0.141168279830909;0.140635604070529;0.140850349927565;0.140849028459473;0.140055312816195;0.139782953797851;0.138847721296801;0.137709905514069;0.137024416813433;0.136252215172793;0.135083232996531;0.13397526687785;0.132753840683578;0.130988182842198;0.130346573856589;0.129361685797029;0.127931469429355;0.127737294425566;0.126943427147696;0.126374162152068;0.12701667418981;0.127787534930037;0.128185992865755;0.129067361742792;0.130262797547062;0.130900349345987;0.132535399590115;0.13357335450018;0.133201321798727;0.134372994846178;0.13333277512356;0.131754014117576;0.131729250844916;0.130479746372306;0.128777034300295;0.127769116622526;0.125506353880265;0.122868446263785;0.122430214223234;0.121344547388037;0.118907291794023;0.118419869106832;0.116042210324703;0.111376494261909;0.113683535193458;0.110049526078173;0.109459943814603;0.109265139399045;0.105657681019421;0.104560546641933;0.10522955076417;0.103877952569502;0.10507109514475;0.108101765074346;0.102784198860479;0.0991826949320007;0.106881058831908;0.100688916254968;0.102706894110223;0.107703775578141;0.0964757185984813;0.102045002761555;0.109178631131722;0.100932288596909;0.114092692766503;0.118261774026201;0.108063665236437;0.114552099369232
-0.0644714671223906;-0.0826586526975581;0.0239161824325445;-0.0134220741677483;-0.011642749512002;0.0247092567014509;0.00586342288615591;-0.00207876195260716;0.0133255227687836;0.00267089906505188;-0.0245693988277185;-0.00280126584025187;-0.0163818267234756;-0.041840172667891;-0.0207643098313844;-0.0360788932868511;-0.0478295530409599;-0.0416263516802237;-0.045304198078665;-0.0593513304564693;-0.0516228498790364;-0.0479711276440322;-0.0705734740657718;-0.0513813835819609;-0.047518627075682;-0.0507937435590012;-0.0351626750563354;-0.0218204285206441;-0.0147573620748364;0.00169592631629744;0.0230732098794742;0.0337473837346557;0.0576770363687042;0.0786303369419078;0.092541288658457;0.113459982381182;0.133461551778182;0.150786663899272;0.169454249684845;0.188750300629142;0.203337706783453;0.219055682395879;0.236201142562347;0.24812422816894;0.262630096332578;0.275828537508633;0.28658599020102;0.297495277916992;0.3080634980549;0.315974739236417;0.323039769706238;0.330978763479964;0.335169025271099;0.339461503809011;0.343938805672069;0.346882751928875;0.351075967788852;0.356287811408591;0.360698922329715;0.36410055491265;0.367073538598584;0.366903783172288;0.364456943868312;0.36179857097702;0.357715368345148;0.354667153426313;0.352629843717912;0.350391699765134;0.348239682943643;0.346927834272482;0.345187119791673;0.342778783219731;0.341890492507651;0.340402557886585;0.33901098373662;0.338615291140922;0.337574908678586;0.336075108015;0.334911175497693;0.333526480746551;0.331167623289905;0.329704038914909;0.328006107973921;0.325594510603238;0.323782272035999;0.321032172170834;0.317112833177238;0.312647021666604;0.308027217702992;0.303511682681832;0.29964931219613;0.296057238901445;0.291517657066976;0.287857860907684;0.284039336246959;0.279379514001767;0.275080131493481;0.270610423866372;0.265690167744785;0.261113099938545;0.257045452180274;0.252470272699132;0.248538361293814;0.245347917317818;0.241684423310759;0.23885128405242;0.236342265530404;0.233808223390829;0.231645207370508;0.229844079564794;0.227800675923657;0.225939173448926;0.224682699573779;0.222764700924851;0.221133549150782;0.219816093650988;0.217952274889977;0.216196362814823;0.21454715604005;0.212577005366495;0.210441708161891;0.208583555221425;0.206531615287194;0.204502816896052;0.203244494171081;0.201461153166982;0.199935403076942;0.198738333679451;0.197291594774376;0.195869703625825;0.19476088482457;0.193543048050613;0.192210490408533;0.191440043195698;0.190027733286881;0.18859170673695;0.188092028656939;0.186916566855964;0.185527721664541;0.184434868976988;0.183242296171776;0.181861436077547;0.180691502712848;0.179264115644126;0.177416073522235;0.176716680644341;0.174743868103574;0.172672284195093;0.17125827823699;0.169488510441347;0.167516570908809;0.165852867173893;0.164007999625681;0.16190805952283;0.160715071193169;0.159347302207205;0.157099705921287;0.156497382693324;0.155220911269763;0.153730388169643;0.153475167228169;0.152796092467363;0.152010889323981;0.151954501141009;0.151785750097743;0.151130836223068;0.151771336290434;0.152264264290214;0.151221074413909;0.152441221230044;0.151930838772939;0.150677960167113;0.150987613138586;0.150173633530467;0.148812122807101;0.148454072297679;0.147590584951119;0.145607411629083;0.145243194093202;0.14447618038582;0.141744704102636;0.142274102427486;0.141149886312098;0.139487292433228;0.140819776990873;0.140667544997662;0.140439987129331;0.142341603424329;0.143398638165694;0.143706528337585;0.146235919140255;0.147945176444191;0.147779013367735;0.151054145425381;0.151084032930923;0.149254482603958;0.151825729357415;0.149643717933122;0.148430416504166;0.149875476450111;0.14630008511155;0.143426794942902;0.144416704318945;0.142445406677026;0.138668147828351;0.140177582273106;0.136523141376206;0.131018658640442;0.137076874709124;0.12948525256657;0.126950582589066;0.132766870459305;0.12395984067415;0.123106006717959;0.126370908696547;0.119238469033342;0.119641111990476;0.124600466121074;0.116452972513287;0.113233049876148;0.125336906540857;0.117614367419882;0.117541664270549;0.130232081661717;0.10510378848045;0.119192465026593;0.132988377489365;0.108083048946821;0.132432406131727;0.132083011396452;0.112215933352915;0.132621030023039;0.136775194414634;0.124535203990837
-0.0955034029365787;-0.0550727650201457;-0.0307842477952503;-0.00640442368564989;0.00245884385343975;0.0101023246635374;0.0141629143358377;0.0146318249939847;0.010163672096642;0.00182390933016401;-0.00582546706405418;-0.0128195152487246;-0.0212554722350674;-0.0214799722704573;-0.0268024191670218;-0.0306474795905703;-0.0352756063433804;-0.0361720072434811;-0.0372842332381692;-0.0418831608561676;-0.043978107027272;-0.0423703257852458;-0.0416764630904359;-0.0399290179627244;-0.0357494373429785;-0.0279681895882663;-0.0210383037898142;-0.009980904463349;0.00592060832755588;0.0229170628148973;0.0405387858539687;0.0591532879757919;0.0794176708182017;0.0992497140768738;0.119345868780564;0.138809636431636;0.158843769338845;0.17810651554745;0.195936524707373;0.213463578447731;0.230972909640602;0.246680585014936;0.26215942171143;0.275822964124526;0.289439169882846;0.301836099001454;0.313618752544513;0.324460219307336;0.333999924785164;0.342294817293489;0.349407995445259;0.35611985259875;0.36136240939146;0.36573579799848;0.369562564499108;0.372644079031471;0.376653521236347;0.381355707197977;0.38602114866308;0.390050937305202;0.392227253813398;0.392639459516124;0.390119818743487;0.386074497322682;0.382433975994258;0.379392829706367;0.377075000456848;0.374884775859398;0.372654834344802;0.370639236285339;0.368640155342055;0.367170932739952;0.365241788869411;0.364011076590813;0.362639777596901;0.361706768903255;0.360651690153182;0.359364549964617;0.357939294198718;0.356288205986086;0.354467697120692;0.352644125228676;0.350556191832572;0.348796927653707;0.346427557034251;0.343825299869132;0.340220191713029;0.335606733936154;0.330875665231996;0.326666163225291;0.322735234575089;0.318969808630949;0.315025984213731;0.311135609752607;0.307169113796751;0.302925914743334;0.298475878311526;0.293843494134201;0.289098311825536;0.284429746911431;0.279964550222282;0.275577068773804;0.271761503964;0.267996073747018;0.264613429592661;0.261539019114937;0.258705997976788;0.256202081643755;0.253884540049533;0.251649530709531;0.249642052916816;0.247786858973995;0.245835972706012;0.243812260266988;0.241951652965489;0.240145033588806;0.23829973740492;0.236216330160076;0.234096483239053;0.232019757312214;0.229768884218378;0.227365963011735;0.225175341643402;0.223114969708047;0.221079716320142;0.219216521709128;0.2175169844234;0.215924022896854;0.214283601403208;0.212612504421482;0.211018265659713;0.209535664867601;0.208133914609796;0.206670127743576;0.205057471659934;0.20359095214472;0.202371389892498;0.200845409753018;0.199299963987357;0.197826905345492;0.196369064777157;0.194834813292128;0.193124964899159;0.191284174680694;0.189597763845228;0.187820418794457;0.185901368840695;0.183774348152373;0.181720383917401;0.179590116043542;0.177544230440442;0.175414916311102;0.173259357637589;0.171345709379188;0.169480362038939;0.167515932203446;0.165612934777972;0.163992857646635;0.162543511380987;0.161190186365839;0.160088565807934;0.158950278177085;0.158049565397932;0.157389762012466;0.156791273883639;0.156330467815896;0.156003174703207;0.155604720405736;0.155417090458555;0.15495978704362;0.154648840080079;0.154078759945568;0.153256499244795;0.152110557165624;0.151054821868807;0.150086557865093;0.148901758065677;0.147569843294392;0.146302822259537;0.144782532388653;0.143181602231932;0.142232160664444;0.141284609829863;0.140735937701942;0.140483016497454;0.140250516592598;0.140815752815686;0.141799481046202;0.142982843436122;0.144489748368921;0.146060377868364;0.147253716669556;0.147936201281392;0.148988841291922;0.14965236067342;0.149877622940288;0.149696496497116;0.14926599597232;0.147747033355796;0.146636031600055;0.145811081649715;0.143976701291779;0.141848123947935;0.140022817358164;0.13826234865469;0.136880532504787;0.134155689917069;0.132887694554291;0.130107247463047;0.128047106295145;0.126555174010488;0.123902415565773;0.123794922771504;0.122396881068175;0.120711742547709;0.119116811890757;0.11713390965459;0.115268227760379;0.114640476434621;0.114603155710401;0.113629765957885;0.112794349338009;0.111650641955484;0.110922227015349;0.11500186164509;0.113940229740738;0.115589273021996;0.114317814739295;0.115252541317771;0.115036273410848;0.123574475397522;0.126446267305784;0.123017907993166;0.124883497863312
-0.0704756365021965;-0.02284184700707;-0.00676416970573909;0.0120226468195127;0.0294701913403562;0.0332340831842811;0.0317916310201542;0.0290082987713588;0.0206900519379708;0.0108826160071353;0.00826720338565759;0.00271634669847329;-0.00832588354971474;-0.00938374919119937;-0.0152800995027431;-0.0213774525817788;-0.0240269123151636;-0.0267607703291153;-0.0308433118675349;-0.0331667218718786;-0.0334768326800866;-0.0380889887348268;-0.0363701576198581;-0.0353969146884227;-0.0333847476567157;-0.0232771581436318;-0.0126600976356456;-0.00123684495864857;0.0130071005076966;0.0287126444665234;0.0448117109133518;0.0655106387360653;0.087133040726875;0.106232247714653;0.127482451280222;0.148754924991175;0.16885775032917;0.189034439132192;0.208514829992484;0.225959194370204;0.242942807493057;0.259620728669371;0.27467350821721;0.289076087568083;0.302960113742173;0.315434507479017;0.327084221456047;0.337960480864091;0.347553484739862;0.355822065425593;0.363315361664145;0.369450193829894;0.374261490857799;0.37886340915156;0.382302096256201;0.385364493607246;0.389418826079591;0.393760126138029;0.397841326463366;0.401528603571665;0.40345073437426;0.403129769575283;0.401039418754497;0.397126685714724;0.393154381519197;0.389971513295461;0.387154499024066;0.384629850320664;0.382345981889829;0.380006754531271;0.37764586452092;0.375728632711601;0.373937033113105;0.372208661364938;0.370807194451095;0.369581583950775;0.368223129072075;0.366781790325295;0.365108684901689;0.363052877007291;0.361069783693474;0.35905321297011;0.356634684712701;0.35458460867228;0.352040212269598;0.349058888748701;0.345312331522718;0.340461334523405;0.3353843461192;0.331097245027449;0.327043642495363;0.322977182818099;0.318848073609855;0.314894588190724;0.310778008459808;0.306320790927624;0.301691408403238;0.296784221500465;0.291912640291079;0.287310321554076;0.282596895041683;0.278201746286391;0.274144454091259;0.27029875055247;0.266854837301254;0.263736994065762;0.260791618641402;0.25815038670707;0.255708816659987;0.253349379126368;0.251237843098557;0.249353239217413;0.247252017788213;0.245325072274054;0.243368607411606;0.241505351729761;0.239557385684563;0.237450693742884;0.23524292962137;0.233045886432237;0.230813569093226;0.228357556053311;0.225916011709786;0.224005882370106;0.22197616135235;0.220007774126592;0.218214907700585;0.216447426760497;0.214714522248208;0.21310951234666;0.211512673957669;0.209848312284379;0.208432991659966;0.206947355197921;0.205157621611367;0.203848720197202;0.20245112471781;0.200894860584904;0.199362572582111;0.197895946217614;0.196394252698948;0.194784075381064;0.193013530452705;0.191071784249278;0.189424282983894;0.187657614658241;0.185564739015211;0.183576599726609;0.181588877714199;0.179518474760226;0.177463384574375;0.175281859127462;0.173044020312756;0.171032919786481;0.16914910176358;0.167167339270733;0.165638435611083;0.164007999625681;0.162410614902552;0.161307220461377;0.160224082275909;0.15922089428109;0.158700483843767;0.15822476962244;0.15763980232463;0.157452477021938;0.157402304289864;0.157216391221002;0.157307466203195;0.157164187668463;0.156858514339586;0.156388298643602;0.155621685651734;0.154582870792463;0.153685840507024;0.152649233180799;0.151356189946517;0.150163691662563;0.148848647706427;0.14704875983131;0.145743889749463;0.144777622751376;0.143566880892678;0.143210711246684;0.14307991717007;0.143697579882125;0.144846908323385;0.145837207889688;0.147063322408935;0.148937005391761;0.150770009386236;0.152279434488863;0.154364821848246;0.155531771185588;0.155702668100189;0.156669407618596;0.156419489401743;0.155684829533479;0.155227120079149;0.154076716439229;0.152351284294154;0.151084155929023;0.149215841561661;0.147341262655907;0.146617648527797;0.144212718474975;0.141208435709398;0.140374581053593;0.137485441378359;0.134279208486575;0.134801237453895;0.133007136467977;0.130335844427591;0.128528878750086;0.126829770336223;0.12629875796481;0.126048472752489;0.123411550221186;0.121572196914265;0.121355056964232;0.118525811323154;0.121321059691736;0.123966658243557;0.118678294810528;0.116130040023236;0.120069894997729;0.114472954115977;0.121346557396602;0.128945900845709;0.120417719257627;0.123858860738564;0.127924006281962;0.132153774548783;0.136973155910844
-0.0454622436945212;-0.0587235509052233;-0.0211301482696615;0.0303519978365101;0.0108106146062977;0.0215384014738639;0.0243583102353765;0.0100983684960954;0.00727266662086414;0.0130000748408589;-0.00317564836257185;-0.0150372684708387;-0.0109263477067359;-0.0306976599105687;-0.0342063884454639;-0.0285582399288427;-0.038776686370939;-0.0435434255365664;-0.0431047692174064;-0.0511293594573279;-0.0583068048891329;-0.0494994473556583;-0.0510552295862277;-0.0491412388226443;-0.0411983936269733;-0.0408142937054739;-0.0331079729610647;-0.0173543479948816;-0.00325022752058789;0.00934624048616727;0.0300244321914938;0.0483127575270436;0.0666109203751244;0.0927815883799246;0.113186944920119;0.134259033752852;0.156399629158944;0.175858734904496;0.193977146891736;0.213499292056067;0.231092527367631;0.245804152887035;0.262053246764712;0.275873291097526;0.288807289484408;0.30150041755543;0.312924654070126;0.323306116083968;0.332904529829621;0.34107592197636;0.34752245148617;0.353785228074288;0.359218635717748;0.362558505871181;0.366155789796431;0.369088669445238;0.372260339899481;0.376602040892987;0.381040214577317;0.384055626807362;0.386043015538909;0.38629260831444;0.3828031169194;0.379328853237161;0.375969682248604;0.372656165973554;0.370237501641759;0.368021100069062;0.365503988068813;0.363274359905964;0.361501058885578;0.359290444431586;0.357371685669257;0.356257134105796;0.35455699898835;0.353508051353687;0.352488325638765;0.350950057901238;0.349167463182352;0.347445892942317;0.345378798805265;0.342894598308376;0.340988016085281;0.338624951752135;0.336015321498321;0.333290747364237;0.329218105629992;0.324108518278614;0.319228325855522;0.31491682854497;0.310550661784887;0.306982567726586;0.302840690691719;0.298455068563228;0.294422777172178;0.289935633900796;0.285446694827936;0.280830028671165;0.275918295235629;0.271072597662258;0.266674552649602;0.26238337156303;0.258075556353158;0.254573072778586;0.251151572222325;0.247784784376271;0.24501941577767;0.242509985473842;0.240104342644884;0.237982982578763;0.235999190525334;0.233791334157048;0.23196737347716;0.230192949829739;0.228196307522928;0.226517448113729;0.22465618069641;0.222474874326824;0.220447445406365;0.218453208564275;0.216091420655105;0.213824399609173;0.21175354774995;0.209391452758259;0.20751522735418;0.205753775591543;0.203862539719076;0.202278384427947;0.200723910145813;0.199005803829536;0.197348988783653;0.195877339800526;0.194350392573352;0.193031073554255;0.191742763331602;0.189935854171829;0.188633746918107;0.187462972195882;0.185775784861098;0.184358108328784;0.183073652042416;0.18139785886091;0.17966334551658;0.178115940041209;0.176266380178473;0.174603290612054;0.173143846427771;0.170657303259754;0.1685767743454;0.166702473508793;0.164643361301437;0.162725465568476;0.160868269252295;0.158734469966206;0.15684667328165;0.155398394034528;0.153246486553678;0.151919316159423;0.151144490696262;0.149674121525929;0.148794442677802;0.148186109814825;0.147364798221873;0.147032430827114;0.147232381534091;0.147008791416304;0.146762360177798;0.147325898155883;0.147133643986157;0.147374188415022;0.148009473340128;0.146799200249435;0.146166411634134;0.14555828514526;0.144386969339668;0.143452475998836;0.142744235705406;0.141284669956782;0.13957454431068;0.138801505715655;0.137120584537439;0.135579525069211;0.136385903295324;0.13506776264022;0.135080328558117;0.136036819569004;0.136477529282237;0.138277336109103;0.140569568249444;0.141889787794334;0.143784290922562;0.146535177763575;0.14750542846439;0.149486278538405;0.152292138396223;0.150231693674782;0.151295025886857;0.150546372271281;0.148381030783517;0.148202421162251;0.147708953359786;0.145570672510918;0.144405015988521;0.142776573433532;0.138651473500928;0.137398727344784;0.13783515505271;0.134015472667265;0.13299923164236;0.131206786870381;0.124405865841093;0.12767954251132;0.126316300759617;0.120867519680382;0.121919386772251;0.119736710180855;0.116537363932068;0.119301911123063;0.120107631225872;0.115390680767227;0.116885040927051;0.117730877248039;0.106900334279992;0.119890077383699;0.120346608016931;0.110670335433043;0.125531518650938;0.110916564295443;0.107613015122623;0.128188734878905;0.121933533170441;0.122938645945853;0.130326463723253;0.119545820795336
