24876;24691;24510;24331;24155;23981;23810;23641;23474;23310;23148;22989;22831;22676;22523;22371;22222;22075;21930;21786;21645;21505;21368;21231;21097;20964;20833;20704;20576;20450;20325;20202;20080;19960;19841;19724;19608;19493;19380;19268;19157;19048;18939;18832;18727;18622;18519;18416;18315;18215;18116;18018;17921;17825;17730;17637;17544;17452;17361;17271;17182;17094;17007;16920;16835;16750;16667;16584;16502;16420;16340;16260;16181;16103;16026;15949;15873;15798;15723;15649;15576;15504;15432;15361;15291;15221;15152;15083;15015;14948;14881;14815;14749;14684;14620;14556;14493;14430;14368;14306;14245;14184;14124;14065;14006;13947;13889;13831;13774;13717;13661;13605;13550;13495;13441;13387;13333;13280;13228;13175;13123;13072;13021;12970;12920;12870;12821;12771;12723;12674;12626;12579;12531;12484;12438;12392;12346;12300;12255;12210;12165;12121;12077;12034;11990;11947;11905;11862;11820;11779;11737;11696;11655;11614;11574;11534;11494;11455;11416;11377;11338;11299;11261;11223;11186;11148;11111;11074;11038;11001;10965;10929;10893;10858;10823;10787;10753;10718;10684;10650;10616;10582;10549;10515;10482;10449;10417;10384;10352;10320;10288;10256;10225;10194;10163;10132;10101;10070;10040;10010;9980;9950;9921;9891;9862;9833;9804;9775;9747;9718;9690;9662;9634;9606;9579;9551;9524;9497;9470;9443;9416;9390;9363;9337;9311;9285;9259;9234;9208;9183;9158;9132;9107;9083
0.0191337631169997;-0.00555456559121546;0.0448899616639917;0.0469815115311355;0.0448668942849151;0.0546731499573872;0.0456738727957118;0.0341333919096342;0.0336583030877886;0.0293688330006352;0.011852435415169;0.011670289820854;0.0113998450651137;-0.00337263028351739;-0.00361044123352968;-0.0078680668847743;-0.0188252780039508;-0.0187703795121496;-0.0197828051860108;-0.0300570208557713;-0.030922590733782;-0.0280769004720683;-0.0372073032170766;-0.0330802052991568;-0.0232956811043373;-0.0224873454441267;-0.0134797579809854;-0.00188335424750284;0.00724965839155606;0.0206337576038388;0.0418430344061737;0.0584417118044488;0.0764823791277107;0.0998519311825627;0.118817585496098;0.138450177038049;0.159801596397013;0.179272318452032;0.197493841479563;0.216832773762357;0.23452807690699;0.249680097454035;0.266351335413132;0.281010315508416;0.294540078571411;0.307979819473938;0.320058068581698;0.330807566816342;0.340880134257657;0.349969269906009;0.357338954039891;0.364298155405124;0.370420488388246;0.374463152928813;0.378720975057953;0.382636954192516;0.386793600297464;0.391915438203018;0.39696795197347;0.400514085178653;0.403085051188218;0.404447566029253;0.401888047540717;0.398428430214054;0.395327889867862;0.392214181126505;0.389955417044904;0.388294531349987;0.386405511091009;0.384434779620877;0.383230714643378;0.381456775978588;0.37972264005221;0.379102046776227;0.377876887803727;0.376985188505963;0.376286469527037;0.37506478747021;0.373540756931303;0.372250515387831;0.370552172431792;0.368518688460417;0.367043303323759;0.364974514704273;0.362630969088826;0.360373184568445;0.35689973850825;0.35223757928457;0.347662843878126;0.343663528684663;0.339477161855867;0.336073978114761;0.332466826786092;0.328374856191702;0.324621228081703;0.320489340924302;0.316023018148536;0.311608390255989;0.307123658928942;0.302496039742086;0.298249442424726;0.294176983357636;0.290110339378881;0.286816091351869;0.283581268668641;0.280512842532869;0.278003675018532;0.275714952952411;0.273466188776257;0.271451843672549;0.269676316571667;0.267792705128401;0.266116193453392;0.264484933614302;0.262590343824403;0.261111911468949;0.259409720878568;0.257421438362648;0.255571585068669;0.253779044347442;0.251655112443443;0.249461213312287;0.247596191062281;0.245692419539034;0.244067775529965;0.242552496694875;0.240937265647986;0.239567036332932;0.238273501481315;0.236883387375665;0.235573304895414;0.234453854571647;0.233194754772684;0.231913662526954;0.230915108677722;0.229565332351508;0.228564365018164;0.227593936832688;0.226139351106059;0.224859776436882;0.223838242505746;0.222566652366993;0.221058401808512;0.219740885779229;0.218224526233303;0.216567471312471;0.215292933928326;0.213235591792026;0.211515854572571;0.2099649968659;0.20801274286074;0.206193137567482;0.204534462569887;0.202598174190363;0.200956388867074;0.199587515666363;0.197641823117878;0.196166727034305;0.195263329307881;0.193750273066841;0.192717030568174;0.192000282000936;0.190866304837192;0.190052690634768;0.189881717821067;0.189344956386175;0.188617453350574;0.188808186737119;0.188085800548373;0.187672534157553;0.187604229796217;0.186410872656028;0.185745077275745;0.185109232356952;0.183807104991413;0.182835397422114;0.182225796249772;0.180843614842856;0.17933630567152;0.178751583488093;0.177019294902172;0.175696968417766;0.175606379469044;0.17386478919356;0.173753004508814;0.173800371781124;0.172946286705553;0.173097715241598;0.174096291166476;0.174324413090973;0.174802904736565;0.176675191224431;0.176495188706487;0.176707286466296;0.178890822208885;0.177402155644106;0.177041296007875;0.17705435357093;0.174364835015035;0.173933235062472;0.17330162235625;0.170909888263259;0.1697673163888;0.168715029984451;0.16541908837633;0.16462730889425;0.165066394216796;0.160931362816244;0.160082789400527;0.161922750667567;0.156602881573147;0.156952693405489;0.154645801800656;0.151078559550756;0.154637059115185;0.153496996794028;0.148917361997774;0.149864682831739;0.149996861799643;0.147050161229679;0.152251931185903;0.152814615450013;0.144629208191066;0.158552928542836;0.153728779424521;0.141329346558666;0.157754009902654;0.153256870089639;0.151197082881035;0.169577447040729;0.159791870878988;0.157227618611326;0.168057188518429;0.164477599598854
-0.0704095375226402;-0.0471069596638695;0.00248317208351784;0.00579427333842175;0.0228995741767216;0.0248125221299828;0.0271270689010692;0.02498292238606;0.0183790213990931;0.00969773761826471;-0.00086512095768087;-0.00321832817650963;-0.0126942634793252;-0.0165097825102641;-0.0200250716019128;-0.0271860538950811;-0.0323681030308455;-0.0360537131226702;-0.0377009331379291;-0.0387012120937565;-0.0418807946445412;-0.0417238071421302;-0.0415521603933731;-0.0389228308351185;-0.0328668582478716;-0.0252759552752362;-0.0168483071420341;-0.0064360898727998;0.00712995577750197;0.0236125549685257;0.0420543632209659;0.0627500389770109;0.0837969092091652;0.106022530915343;0.127219724415291;0.148872142732474;0.169840577567572;0.190270573352202;0.210065721501986;0.228478733866409;0.245594017051864;0.262273249116642;0.277334082327839;0.292441490400726;0.306303909938487;0.319312388421777;0.33098760427049;0.341764355306908;0.351589730880426;0.360123418597467;0.367815923460666;0.374155092983363;0.37942809881418;0.383385240121629;0.387075602906124;0.390602615217263;0.394581491736251;0.399265106292541;0.403929104162871;0.407587610147057;0.409850825376406;0.409837657657102;0.407728729972309;0.403987010769087;0.400359567713374;0.397235720103608;0.394743343210252;0.39247495914668;0.390316393501147;0.388473390167901;0.386719742491069;0.384730314853158;0.383148960154872;0.381727383993999;0.380640954101652;0.379730969210256;0.378676519421999;0.37725923515543;0.375590935432318;0.373866253990245;0.372001804141416;0.370029748261108;0.368114550876252;0.365827144933431;0.363502976537496;0.360762803549963;0.357093298351677;0.352375691822824;0.347528638624562;0.343373488159722;0.339378478145571;0.335477330807703;0.331541303144655;0.327659928741006;0.323598425863055;0.319376442699769;0.314979161413085;0.310279688620023;0.305540994277063;0.301040592578623;0.296590217528094;0.292295468864459;0.288347289218608;0.284645325068964;0.281268021742736;0.278186665304905;0.275326973572271;0.272813968677702;0.270479574788793;0.268154037836216;0.266005280789221;0.264107252623549;0.262291680365411;0.26038849961592;0.258453616998127;0.256678731755985;0.254670174362539;0.25258640521688;0.250502921383726;0.248409224482318;0.246223198607415;0.243796500164516;0.241493083029869;0.239596894384412;0.237663981397247;0.235930174380834;0.234213911113679;0.232598993770322;0.231011127545277;0.229445471525905;0.227941664149099;0.226515984821644;0.225174174621378;0.223622042643164;0.222051540095353;0.220824949950886;0.219560987222671;0.218341688447801;0.216799432170504;0.215283807882361;0.213819923022246;0.212273504186799;0.210679448916543;0.208896922832527;0.207265353311303;0.205592476074364;0.203755883855201;0.201773015512611;0.199716539271075;0.197883479692616;0.195868340037328;0.193804690262991;0.191816247318568;0.189840296301192;0.188055866692176;0.186141845229553;0.184583847251831;0.182710762918475;0.181181547046506;0.179895725599047;0.17868132552564;0.1775172365739;0.1765517901524;0.175665533473629;0.174808295720081;0.174122165336948;0.173486457462085;0.172853618563975;0.172605523087062;0.172316429592252;0.171547119246525;0.170542546286563;0.16959118057762;0.168518129852304;0.167405194894142;0.166291729064808;0.165081446645461;0.163777885834911;0.162483844986156;0.161148076916664;0.159776937926863;0.15834482188085;0.156847982014289;0.155746925826798;0.155102836611715;0.154872428965017;0.15484178334825;0.15510867130349;0.155400443769307;0.156000562328501;0.157057866504945;0.157637741993506;0.158318182421136;0.159193073183153;0.159115070824686;0.158290669201601;0.158439511496187;0.157289748751442;0.156541783762107;0.15517062318483;0.153415187951664;0.151591142479894;0.149946868271733;0.148747890485904;0.147467369646065;0.145495928626499;0.143710277069672;0.141288999116834;0.139729149533307;0.138454836453341;0.137114093290241;0.135816008873194;0.132932577267621;0.130355016872326;0.129645672675533;0.129378124234582;0.128522748200297;0.127796278070928;0.124651791724005;0.122226052825984;0.12541168014499;0.122780971900254;0.129069407813983;0.126177546161892;0.122955246544329;0.119926653158487;0.120724588032371;0.120940953905617;0.127681989964362;0.126212332288461;0.127071835795989;0.132653388931625;0.136272779897853;0.138820995775026
-0.0719843120910087;-0.04964125349852;-0.00622165611331817;0.00948866064868616;0.0244428845907997;0.026128338293128;0.0239346757483687;0.0182111468698916;0.0143878564404338;0.0101941267585206;-0.00139358417276758;-0.00489933169123132;-0.00650540508831734;-0.0125681317644276;-0.0195740324064444;-0.0223698014086794;-0.0278631172583027;-0.0325103751418923;-0.0368056906728034;-0.0404251054773231;-0.0396425099074713;-0.0405097756885833;-0.0396714466868442;-0.037919082957022;-0.0357050376412688;-0.0264511371056786;-0.0163571511739086;-0.00556528484108858;0.00719406388213741;0.0229525000682333;0.042575902219663;0.0623386038874852;0.0837867962700465;0.105899531614349;0.126748530345129;0.148888418678037;0.170205012397698;0.190259064149462;0.209322599574174;0.227535483760388;0.24513227435964;0.261314632179289;0.277335645017633;0.291547230108887;0.305265497071682;0.317787301746083;0.32956942546513;0.340424526863551;0.349982880855499;0.358324950847681;0.365705353289303;0.371906081626116;0.377236253303091;0.381573342607432;0.385441286067195;0.388455968375331;0.392097294507034;0.396676314860745;0.401291108886026;0.404940165687669;0.407037004242169;0.406963280716106;0.404620965311996;0.40068373549531;0.396998285678645;0.39388854031414;0.391137358226704;0.388752765442743;0.386635001371269;0.384514881701729;0.382417528122328;0.380532043211539;0.37863933806239;0.377154687897752;0.375753598241742;0.37469516469554;0.373474250013674;0.37202594263634;0.370520572774133;0.368856078843321;0.366855467076587;0.364907696700616;0.362647385088561;0.360944931551857;0.358537589824482;0.355727872741678;0.352061312579062;0.347331660210416;0.342472896853249;0.338324058325261;0.334326625706124;0.33055471000837;0.326514526469317;0.322493968604851;0.318405227991065;0.314135512203081;0.309588332984833;0.304816039834539;0.300006874791666;0.295319641079136;0.290782632556026;0.28644158794609;0.282415116360667;0.278582322930441;0.275157295490745;0.272028402884345;0.269061551706376;0.26641204564352;0.264042875301125;0.261782963270045;0.25963186211825;0.257653018693753;0.255700130821212;0.253616098401299;0.251703025276924;0.24984643674665;0.247926878805579;0.245783960749534;0.243565950335332;0.24137397348619;0.23910916847351;0.236752875331571;0.234420920610552;0.232440835675803;0.230433929791512;0.228551574400145;0.226847326792443;0.225148500930224;0.22353200323331;0.221968703840217;0.220407187996727;0.218922653739057;0.217509101450394;0.215998358390687;0.214425676190016;0.213107738839502;0.211759063889184;0.210397009664087;0.208891372671924;0.207423984611318;0.206014575705884;0.204496140301204;0.202785727580561;0.200993848132726;0.199453374516732;0.197791567241121;0.195980509499401;0.193937165605453;0.191821583496691;0.189858989290174;0.18799754512683;0.186052984090758;0.183999850113204;0.181980676391861;0.180086479232162;0.178279919696373;0.176426729073144;0.174846684055599;0.173443851011203;0.172086519648852;0.170888903633688;0.169890153053152;0.168977125664028;0.16819009724462;0.167540331415751;0.166936119894759;0.166403966584817;0.165891108308647;0.165861520447054;0.165345298170156;0.16475631596101;0.16400141058247;0.163137591577816;0.162044775731094;0.160946146781334;0.160056357038113;0.159019419587286;0.157744642376884;0.156731021819063;0.155429078954618;0.154340841907361;0.152783188589673;0.152200197629329;0.151292872379772;0.151011039703586;0.150796497121959;0.151089137381331;0.151874522593063;0.152579061977629;0.153243643485935;0.154233475101926;0.15522687172507;0.15604509924692;0.156677381461506;0.157262986788118;0.15700487154042;0.15605959339115;0.155558302405723;0.154506993703492;0.152984940430673;0.151480883007821;0.150370185565504;0.148744465028936;0.146566399170146;0.144752469307544;0.143084143509579;0.142153229537874;0.140618373756333;0.138502926929052;0.136632582361676;0.133246650107659;0.13288946382442;0.131682786756491;0.129567123211785;0.127476801446429;0.126381192023116;0.125221525411371;0.125520095751732;0.125890478275611;0.124184530158793;0.123664707874666;0.122774749099047;0.123418532299615;0.120780791495477;0.126099853656955;0.122225477372695;0.124983731847419;0.124344738627358;0.126095266865837;0.127669752837076;0.132552842548449;0.130854913051782;0.133995783190613;0.142646935386581
-0.00261956539633282;0.0397882590842388;0.056582407525457;0.0414944088381947;0.0652009796106047;0.0719676117104014;0.0641220794686156;0.0583943148213332;0.0462977993281062;0.0287243832568723;0.0264980289053492;0.0306548293539524;0.00879222710348271;0.0127772367115109;0.00636029399541703;-0.00709798348365245;-0.00598184429469436;-0.00684668533047919;-0.0150725062646379;-0.0177543374667377;-0.0142512262951914;-0.0249509098516019;-0.0267828202114263;-0.0166916155780808;-0.0190988351984579;-0.0098955861772336;0.00039499668645862;0.00707146318120402;0.0183980053607314;0.0372125789542563;0.0536745537341385;0.069914254676643;0.0932785757054933;0.109591948744008;0.129617341722764;0.151403822655118;0.171059835566531;0.190106377338066;0.209373025197935;0.226996355715812;0.242922975895062;0.26036397951549;0.275679228309943;0.289213676529395;0.304030016838692;0.316068694760179;0.327122774980943;0.338533847471732;0.348737012075343;0.356757612427954;0.364647767814078;0.371307680742457;0.375570104140613;0.380783393173263;0.384880633811149;0.388114366278098;0.392520528302671;0.397396395200368;0.401842909052928;0.405979798464292;0.408869362960586;0.408568179675341;0.406729997740915;0.403166360771706;0.398810664089547;0.396032115554898;0.393887894921841;0.391694057588362;0.38984531763305;0.388255880335219;0.385888597693572;0.38409842798789;0.383209723575836;0.381739203410815;0.380851237725877;0.380198178330063;0.378865695126917;0.377582248465233;0.376550876718802;0.374947174181285;0.373063733746403;0.371819683583764;0.369556563882397;0.367674332147819;0.365793064028647;0.363239576608228;0.359748094145306;0.355287231761564;0.350522217655741;0.346328727597994;0.342716919441127;0.339083130362434;0.335104384064593;0.33156450573983;0.327464002930056;0.323101634515992;0.318917218535746;0.314416964581554;0.3097161836227;0.305329442471774;0.30096225100875;0.29650278928183;0.292816859022091;0.289226947548541;0.285881234534451;0.283000175906985;0.280205326094702;0.277637843288497;0.275480174597149;0.273441815747448;0.271286186951159;0.269595595716347;0.26782545335597;0.265591771808402;0.264012325338342;0.262345786954497;0.260280700607479;0.258253879997851;0.256277608462063;0.254121102506742;0.251853465609383;0.249672534582855;0.247341815876095;0.245506490453373;0.243749223288316;0.241628739591972;0.240083809886743;0.238590468347125;0.236983882900661;0.235487699836479;0.23405285611379;0.232474658268898;0.231043286414911;0.229842826202326;0.228149376717098;0.22686277655532;0.225712139411246;0.224175624559983;0.22272647653911;0.221314389602383;0.219821929288962;0.218335011075218;0.216788128091649;0.214887366535097;0.212942054277638;0.211647764584198;0.209582737624048;0.207593040415839;0.205746800745922;0.203570825879188;0.201505286668885;0.199531131458046;0.197375601929126;0.195392572735959;0.193908997639342;0.191805440070069;0.189694881565704;0.188563212915334;0.186467847289721;0.185383743523689;0.184410099568963;0.182906065990796;0.181896821813282;0.181232038732604;0.180287577725579;0.179576719341558;0.179353501793073;0.178447498198195;0.177701782599134;0.177646534774989;0.176404759078239;0.175712784374246;0.17530591825775;0.173844114958661;0.172649339965681;0.171908537642263;0.170602944299182;0.16920834448567;0.168433314218671;0.166141699686503;0.164500813845979;0.164204830025114;0.161876535138551;0.16119981735167;0.161276998847104;0.159901876049793;0.159726245012088;0.160164859266194;0.160269745401568;0.161175582925497;0.162695208269155;0.162724202173514;0.162880006490048;0.164620837340596;0.163774023142727;0.163948891879399;0.16424406735166;0.162354564354112;0.162796221552801;0.161579939703039;0.158733218128147;0.158212516154311;0.157832954945917;0.154884526514311;0.153078159572442;0.152890753205823;0.148817873592522;0.149425928625868;0.150360239197165;0.144052152324947;0.145308245218834;0.145193744765751;0.138797380631193;0.141606227501961;0.139558973026961;0.13658350894398;0.139189498542877;0.138519476063408;0.135199485754019;0.138436318559818;0.139292431327571;0.135215909483307;0.142447034451733;0.138825001509081;0.12784600074555;0.149067310706379;0.142388739805352;0.134783348557566;0.148531711474766;0.143879729359822;0.149589658736853;0.160953696234215;0.152643863479692;0.15609219143132
-0.0735885923588643;-0.020763895812445;-0.0385216100261779;0.0103135207368888;0.0278891232586955;0.0187077106202908;0.0246328579277747;0.0219481464471125;0.00694135092855728;0.00023340913610779;0.0009679476762583;-0.0121662909615894;-0.0135092285049927;-0.0142176030301885;-0.0311651912189498;-0.0311085965592626;-0.0306353383194547;-0.0378259447970077;-0.0416673882244209;-0.0402212753639982;-0.0455881695688236;-0.0489131340112185;-0.0412675113475292;-0.0442727518473732;-0.039368505944881;-0.0294828017722235;-0.0251239151273023;-0.0153270563311558;0.00123419290649489;0.0166008410749946;0.0323120238176507;0.0534379470362269;0.0709131554800795;0.0904047683588528;0.113229160638265;0.132441007625394;0.152314278618075;0.172277360206734;0.190340038875908;0.207230568579368;0.224400036345738;0.240597647019216;0.25478283628208;0.269496634160622;0.282616042829939;0.294834797998278;0.30663426348317;0.317217583566779;0.326515815987642;0.335073945898229;0.342520677398623;0.34879275850285;0.354333140430614;0.358850938737183;0.362510770827042;0.366020186088122;0.370145324273892;0.374922769809686;0.379808229763819;0.38389886538387;0.386240184045404;0.386672238878004;0.384888957123601;0.381241184041419;0.378205133488911;0.37569696362885;0.373405188022747;0.371590019950832;0.370054286498926;0.368347961641045;0.366883869820597;0.36569950653647;0.364215367234958;0.363403694006458;0.362545295648354;0.361872506231004;0.361221309857774;0.360326784330012;0.35905321297011;0.357566742171501;0.356200322701725;0.354661453403311;0.352681787629156;0.351286938912912;0.349101189768706;0.346793180345192;0.343545496748695;0.339007381459742;0.334311246033353;0.330443718986106;0.326726150821096;0.323164056541978;0.319523975613241;0.315753821560588;0.311860156779979;0.307889980043841;0.303703909857414;0.299252596065612;0.294805513986473;0.290467929806491;0.286057421157232;0.282143089894342;0.27840708103387;0.274860416047547;0.271841166596412;0.268918341947488;0.266304826050774;0.264054042925709;0.261985441795075;0.260000295454563;0.258229637532336;0.256704299559901;0.254870456396066;0.253238022095056;0.251630925447921;0.249938162872487;0.248348671157909;0.246558818490885;0.244639745182547;0.242787522185952;0.240859141942158;0.238670743166282;0.236715197462501;0.235072612730772;0.233287786248363;0.231729762098983;0.230382770338112;0.22893950344735;0.227589829458955;0.226289892272733;0.224962703657862;0.2238002870615;0.22277877298809;0.221424578734211;0.220040137561397;0.219155013059429;0.218044321810855;0.216867620607837;0.215547399667288;0.21424924577727;0.213111995268848;0.211941135800188;0.210441637655906;0.208773430965255;0.207436167874777;0.205697491782695;0.20418044065578;0.202466007404437;0.200460685675192;0.198694137328454;0.19698033534248;0.194994955440967;0.193042724190879;0.191366420402006;0.189525124578918;0.187786889401463;0.186430019035133;0.184742844772978;0.18324633595873;0.182320684402227;0.180993474334391;0.179849594470077;0.179024202840821;0.178060312308027;0.177304416351851;0.177107175419658;0.176422947807896;0.175767265966826;0.17557475588069;0.174635362947598;0.174070159170505;0.173550051156115;0.172404913755714;0.171401965838163;0.170462671719808;0.169198085427108;0.168092042743321;0.167327874334551;0.165901925879534;0.164187969839641;0.163380968082072;0.161465036633093;0.160443208536924;0.159851545069419;0.158350825364995;0.157967206958825;0.157765001390519;0.157418029447907;0.157991013066684;0.158932117856655;0.159180729708235;0.159972424547863;0.161192011830409;0.161021710138828;0.160527420622587;0.161480279699281;0.160060751856226;0.159251975813508;0.158525525571982;0.15594607923757;0.15538063007167;0.154809837284752;0.152327908675282;0.150671816054043;0.149797841965251;0.146739222556995;0.145872328893321;0.146530369988114;0.141066644342153;0.140469333056166;0.140696425940906;0.136422170842385;0.137031918916464;0.13532579250166;0.131863318779736;0.133496335700276;0.132416264062362;0.128806887932118;0.129325476629402;0.129213884809285;0.125594958898884;0.127517691593235;0.132171202185994;0.12314458436404;0.130540980730903;0.129402344276287;0.125333602887881;0.141153432714255;0.131568588565773;0.129469161152442;0.140967435947126;0.139406643454105;0.138228076499464;0.147869717586147
-0.0924163916753031;-0.0388148157552954;-0.0167643274938866;0.0139013166272666;0.021913613234179;0.0167518895645455;0.0249083611726022;0.0212628378659278;0.00674153593581377;0.00265984377341003;0.00538994035661981;-0.00780408758350919;-0.0164746611461618;-0.0211677906201445;-0.0271705518282434;-0.0285854849563985;-0.0318889522477392;-0.0374651444455933;-0.0403582280822415;-0.0416512108190366;-0.0464561424125918;-0.0472141008558596;-0.0398525550507863;-0.0419793758748198;-0.0411249193030586;-0.0340040354527201;-0.0242684661533027;-0.0123951156551893;0.00170259707150328;0.0165030734244099;0.0321424185527695;0.0540933037827695;0.0747946383934211;0.0938733725575546;0.117194144014263;0.137494501162922;0.156878644879041;0.177131466485551;0.196317123567225;0.213422472383144;0.23103434083509;0.247329995237547;0.261874150263338;0.277563940378535;0.290746919157271;0.303067613845531;0.315060162663481;0.325988446209732;0.335501214820801;0.34415861576541;0.352080948510147;0.35780662745524;0.364026841915626;0.36852984941306;0.371890743440721;0.375872668488083;0.380203598195987;0.384795197383601;0.389888373518186;0.394486693321472;0.396509088209147;0.397172745611125;0.395680508030958;0.391548316300205;0.388581335876399;0.385938761629023;0.383328231455929;0.381613390203468;0.38027646026774;0.3782933302158;0.37678535113876;0.375611561458057;0.374009056804075;0.373286381946105;0.372592252398653;0.371696711046308;0.370897880109146;0.370116401928088;0.36892228846255;0.36735161979477;0.365993151125476;0.364045720891955;0.362068495549234;0.360818819465436;0.358505067656877;0.356043833882366;0.352776006847037;0.348043930466926;0.343226243175323;0.3395968459399;0.335776257701868;0.33188415677696;0.328507619311224;0.324473970572775;0.320506509886359;0.316609266313324;0.312267672503625;0.307713444114154;0.303269946751618;0.298814673446634;0.294319362613955;0.290508198355855;0.286546587731402;0.28286129240992;0.279954289795717;0.276938244995258;0.274076857421028;0.271821351079932;0.269770469455966;0.267621279894501;0.265755990977531;0.263970930775827;0.261969484553057;0.260360894826698;0.258579080219495;0.256906620628244;0.255197587081531;0.253128404942439;0.2509839583442;0.249126272661276;0.247233369744497;0.244814772154999;0.242803245715483;0.241022060519469;0.239017667859876;0.237461348135011;0.235896754469083;0.234341427424414;0.232941397076972;0.231521218605511;0.229990821700739;0.228655012778019;0.227611980398874;0.226080728014356;0.224798848019057;0.223671757628187;0.222248339547827;0.221008696096615;0.219638108342904;0.218254172752655;0.217014623497061;0.215634656972397;0.213845788383627;0.212106297322421;0.210833475083105;0.209059665398001;0.207490646647484;0.205568840581237;0.203336319544357;0.201626106942853;0.199816084202832;0.197705699412583;0.195768605148235;0.194003825756644;0.191942576978906;0.190160810858994;0.188831866592368;0.186852922198116;0.185452564844578;0.184415478328376;0.183036912598667;0.181923627106933;0.180958228001039;0.180043877770948;0.179513615926063;0.179166743744881;0.178205744782132;0.177442080893685;0.177646077130057;0.176944616968744;0.17627055110703;0.17564646535123;0.1742585003343;0.173333275045859;0.172455816464468;0.171140528511118;0.169946927788235;0.168930281510936;0.167288740437961;0.165944626099011;0.165329601095848;0.163203608520772;0.162257250518278;0.161609426313148;0.159890202759254;0.159759307665364;0.159750022263772;0.159434060516892;0.160290160318875;0.161661788881758;0.162028819084374;0.162815428737827;0.16411248733527;0.163320870245909;0.164477028772343;0.164932279153123;0.163290191925364;0.163005777421749;0.16182925285224;0.159922085391337;0.160218366871992;0.159076043577866;0.156112473126142;0.154799974800071;0.153865605932977;0.150858943282189;0.149628700814718;0.149322832390556;0.144136694835485;0.145140721926803;0.142510341534001;0.139531125776975;0.141668208526907;0.138218643175313;0.134621375044691;0.136871961671444;0.135465958897651;0.132041512581976;0.133650682357365;0.133618189983861;0.13046543613852;0.132685278666609;0.1250132100205;0.124468100679397;0.142139734353835;0.128811386602502;0.130129164110376;0.139211459479293;0.127125665847399;0.131211839204642;0.144584069680686;0.137284565373019;0.140474794377965;0.145831739476848
-0.0773926175724909;-0.0506005212891437;-0.0300797144858129;-0.00378483931030859;0.0201449960184846;0.0357978551464225;0.0269487553111152;0.016106904429095;0.00872345158595111;0.00277923833522595;0.00187533118480919;-0.0074985631135707;-0.0128410194947456;-0.0183513419984606;-0.0296722644431021;-0.0324809572528792;-0.0371203917748643;-0.0398842511556553;-0.0421855354641458;-0.0468232000378821;-0.0497988906745144;-0.0504427881969624;-0.0480022367561407;-0.0461012722584896;-0.0386948557663362;-0.0333674544048874;-0.0260504922627474;-0.015187848091738;-0.00063360752255502;0.0169659385512654;0.035589548215481;0.0542877465390758;0.0764168147998231;0.0965090728978734;0.119041400430911;0.141598104431026;0.163697789494469;0.184329625345811;0.20354119338582;0.22212186193795;0.239961916624633;0.256970262597104;0.273168100326485;0.288193529920703;0.301990413346813;0.314709176666201;0.326742830872204;0.337925208384763;0.34799747399223;0.356880377389861;0.364522385627319;0.371023075791193;0.376475226803944;0.380812512844503;0.384847974252685;0.388481251449472;0.392723342228399;0.397363865078068;0.401837979162472;0.405653202140208;0.407917220324261;0.408376070206927;0.406181030639189;0.402681256056034;0.39909111032167;0.396291086727806;0.394039158077452;0.392089260377082;0.390141573046555;0.38805100246177;0.38625244399302;0.384821532344919;0.383154836729243;0.382096552669175;0.381015152143893;0.380130748346335;0.379094041559749;0.37787626577257;0.376524625118769;0.374992485512062;0.373368044807241;0.371519826600604;0.369481003889504;0.367699649093543;0.365505197190888;0.36309355725248;0.35966427985495;0.355107263773538;0.350335455826307;0.346165346786631;0.342403146695729;0.338739758994445;0.334887323910868;0.331120889361966;0.326977340943606;0.322765459320538;0.31845233123463;0.313964741720446;0.309366654956444;0.304820596068038;0.300421107541081;0.296114947386989;0.292193751095588;0.288655899831482;0.285456080248138;0.282435005100784;0.279646755035851;0.27718647461852;0.274948010780876;0.272842376497916;0.270922402055972;0.269085922237332;0.267274373003941;0.265375123146988;0.263581664017514;0.261888516539796;0.260074114494391;0.258102701521247;0.256046916815963;0.253941661784064;0.251739855076966;0.249459670636195;0.247384188600765;0.245470185468615;0.243656739934626;0.241829385982256;0.240151073385941;0.238621538283662;0.237175645811006;0.235723341193705;0.234226422739853;0.232736650055479;0.231336818415369;0.230046655724778;0.228614722548883;0.22737307392799;0.226125315929721;0.224723792461465;0.223252120971509;0.22184520289257;0.220545940286178;0.219165227927835;0.217502293543399;0.215694170374186;0.213879827841344;0.212433904872198;0.210677473672303;0.208711768422935;0.206638815311817;0.204621204403339;0.202739870637558;0.200727357452719;0.198653513594126;0.196829230690583;0.195089952942405;0.193231819787758;0.191257864735829;0.189662148115229;0.188134757229329;0.186963989191368;0.185920692676558;0.184645167022096;0.18345552906334;0.182532473399082;0.181895831501611;0.181494940817436;0.180959216177018;0.180272975550128;0.179429054653719;0.179085004950575;0.178348148234131;0.177831593603128;0.176995205948975;0.175697814524312;0.174550382927377;0.17334000720373;0.172085616002677;0.171081601220974;0.169738297849133;0.168055078168935;0.166713056298451;0.165038069120069;0.163842733534905;0.162929741695637;0.162467430273039;0.161941730092406;0.161633873995096;0.16150232640264;0.162032477078072;0.163146507073073;0.1641872092452;0.165039339264215;0.165037878598767;0.165107614978485;0.165658913673274;0.166030866616164;0.165968364400336;0.164861428255117;0.163890742269008;0.162132263892837;0.161112076260494;0.159905202367442;0.158552740845374;0.157086611184761;0.154603640117056;0.152390637122444;0.150863430409154;0.15007379559819;0.148122764061649;0.145918148451343;0.143792152612029;0.142466146188883;0.140801998826788;0.139863013459889;0.140658959141652;0.138379873723804;0.13569068728467;0.135460263570766;0.135085426156776;0.134264062557733;0.135224922046337;0.134959011513335;0.132897543582958;0.130314562246239;0.134953915398263;0.13467555689986;0.139230728572478;0.133812175977357;0.133799646698259;0.135308712258411;0.135166580872783;0.139003981926572;0.14697747727085;0.150722016003932
-0.0507918117617757;-0.0485622084050555;0.035406218952293;0.0248330769952281;0.0163063415742295;0.0437062475303218;0.0337753132002168;0.0215137122388781;0.025831226686997;0.0222673889084294;0.00559344555142343;0.00824099983644252;-0.00075458218481718;-0.0169385358295715;-0.0128431276968477;-0.0200482955287517;-0.0303657146549294;-0.029874212840694;-0.0312060156444152;-0.0391788622010144;-0.0364516287207672;-0.0327883362529296;-0.0457445483922751;-0.0351402454899385;-0.0313466486379146;-0.0294300458475447;-0.016567475728881;-0.00392602891393192;0.00634196119672895;0.0228635003623687;0.0437629717876164;0.0586012799178303;0.0805547962055564;0.10319191326858;0.123407626457782;0.145593505051854;0.16751478253616;0.187052235234344;0.206193277206734;0.225706881341795;0.242079641892869;0.258451333320567;0.275059758558302;0.28862652301254;0.302690695116107;0.316005036548466;0.32750535973756;0.338261406311783;0.348137826430516;0.356355684010271;0.363983162323916;0.370537799399218;0.3753959647612;0.379819788791383;0.383759814583298;0.386703448906923;0.390699772843768;0.395511504936392;0.399802342070089;0.403182514623115;0.405669890851633;0.40563662458497;0.40345073437426;0.400214054889127;0.396498915979247;0.393434421304717;0.391220951285777;0.389018173654042;0.386852335742281;0.385215377810162;0.383347443485148;0.381224467858305;0.379822183943681;0.37872450677555;0.377395184226774;0.376534546796815;0.375387615248682;0.374002069674661;0.372655858674249;0.371099823178676;0.369194341257325;0.367560424151994;0.365649207552356;0.36340479702101;0.361243260097973;0.358699939622596;0.355008701658455;0.350383330828534;0.345684525371984;0.341421241450255;0.337460597833981;0.333876245682315;0.329494019347927;0.325780583176224;0.321755850222069;0.317340124905582;0.312994022947813;0.308441223210263;0.303665981940881;0.299098818927851;0.294772636045563;0.290350367006947;0.286397579586367;0.282785829061919;0.279335306547796;0.276367608533062;0.273664892212327;0.271064977206389;0.268759857750589;0.266707537701995;0.264563591959218;0.262578736778356;0.260816321253298;0.258869761710643;0.256974422014686;0.255340486195953;0.253394677157289;0.251375338843345;0.249378379359077;0.24726813402657;0.244990251413824;0.242672005881122;0.240557744902958;0.238453050033062;0.236720965035735;0.234903108518079;0.233131457206482;0.231648538900276;0.230051450262291;0.228402231384848;0.226982366059685;0.225622760887233;0.224083505906451;0.222792120108574;0.221351405404913;0.21977510230533;0.218753227047059;0.217294524560334;0.215724358346495;0.214390099773298;0.212975952054065;0.211409351983443;0.209941685611375;0.208176346738185;0.206253326246066;0.20482209182254;0.202893531247161;0.200607751899622;0.198843970198541;0.196857930379025;0.194788223968961;0.192895420834345;0.190825193661637;0.188634283342247;0.187057646816688;0.185186724596902;0.183084972389273;0.181725861457006;0.180295405219954;0.178772361574406;0.178012412722593;0.176813896223371;0.175496877972455;0.174785887854113;0.174261030265341;0.173478427963255;0.173193476891908;0.17298839160542;0.171935765841132;0.171959704838456;0.171260533056383;0.170137408573896;0.169821635061569;0.168620314680616;0.166994040786536;0.16612043485992;0.165113903235225;0.163374262016563;0.162488643250251;0.161430836162874;0.158950152930896;0.158429878980446;0.157070399200836;0.155505924998125;0.155748915044017;0.155246057496018;0.154741424785827;0.155677433269483;0.156390975606821;0.156732392507342;0.15823652327387;0.159236560098022;0.159305433732305;0.16134903049492;0.161375415705055;0.160856129667871;0.161353753266777;0.160192177466592;0.158170006802257;0.15793771668727;0.155893095389939;0.154237377758062;0.154018635340251;0.151666881282364;0.148491239557733;0.148913200894396;0.146853887638782;0.143271532435317;0.145219591196527;0.140624617414906;0.137222432402368;0.140305345354324;0.13557887230521;0.133654049887828;0.135373063204578;0.130538517113005;0.129741215463266;0.131282460540506;0.127457114970971;0.129544240012107;0.136377936731687;0.126189683241824;0.121674025834635;0.134010328483618;0.120887655486243;0.123843611804926;0.135260381182128;0.126029199223963;0.134063487986498;0.136428473380759;0.129271256267551;0.145531689936158;0.144700591142564;0.136642576173604
-0.113302127766878;0.0105299364948478;-0.00795165230349406;-0.00014676673270248;0.047857742146398;0.0257580404458292;0.0233132638145953;0.0340276986301318;0.0199393780796651;0.00248391461825578;0.0143827387447195;-0.00055077030763974;-0.0215572594219946;-0.00192097274107449;-0.0197541723139184;-0.0324543585419969;-0.0226840058861486;-0.0299666398139295;-0.0402390895770726;-0.0324076053444649;-0.0343247854565919;-0.0510764659987468;-0.0358190277419825;-0.0369209878868603;-0.0377292032540088;-0.024076630802829;-0.0169957544961728;-0.0109530276666666;0.00554184551969201;0.0257329258440299;0.0373411522610546;0.0597156656688962;0.0830627533004905;0.0999988161493278;0.124345027761381;0.145936988133579;0.165458689840836;0.186500607752711;0.206892035412125;0.22411457375834;0.242188098051339;0.260625545892332;0.27422822978123;0.289772762971294;0.304532595921851;0.31681044285159;0.329008135588909;0.340541618381339;0.350322514912708;0.359086272622857;0.36749634505168;0.373702448163052;0.378915262187905;0.384310392798721;0.387793502995024;0.391357706590927;0.395983582402514;0.4008396799693;0.405470441935703;0.409767027468912;0.4123232636728;0.412168638756414;0.410728941430129;0.406796922175305;0.403194712827443;0.400516597224078;0.398052831317187;0.39586492061081;0.394127293692226;0.392356930460262;0.390212282058194;0.388819421242724;0.387335219846544;0.38572030042222;0.385092559192874;0.384225173665478;0.38301424050867;0.381837432070992;0.380501586432154;0.378714327196858;0.377008157076026;0.375308045233437;0.373058402254881;0.371388257406458;0.369172391919189;0.366335045377941;0.362848231022576;0.358265688232216;0.353280422268541;0.34909857009045;0.3453959222712;0.341349467864853;0.337385131378116;0.33368554906961;0.329309130363533;0.325104429246296;0.32073722118969;0.315847369803707;0.311025649775809;0.306603821043624;0.301918950197751;0.297650901404869;0.293935601130332;0.289880603105887;0.286662452952987;0.283718462943481;0.28083351096466;0.278381357352325;0.276219262420236;0.273964219679219;0.271813149020061;0.270159905336324;0.26822547063804;0.266185448093079;0.264634516467057;0.262692594632301;0.260792806234822;0.258891911595238;0.256789013469003;0.254700152227496;0.252697284428175;0.250269016548948;0.247928262322219;0.246325496129905;0.244357287235758;0.242471956639986;0.240978639846152;0.239389664527808;0.237850487537279;0.236482161700287;0.234987852354784;0.233376080551777;0.23229533955984;0.230979932020777;0.229197382962866;0.228169573234128;0.227060450216244;0.225524348955316;0.22421485004422;0.222810110354797;0.221336728840116;0.220059311691616;0.218520867046559;0.216284107922799;0.21494257440411;0.213516262374417;0.21122616079453;0.209617570526551;0.207587506893389;0.205434233433966;0.203700969078627;0.201695961782617;0.199439557100686;0.197728910811448;0.196065218346385;0.19376377495206;0.192470857270078;0.190818387104799;0.188733130799257;0.18800116070224;0.186827613850601;0.185380615540944;0.18460503912946;0.183808895416176;0.182844395776979;0.182584841659803;0.182173140948614;0.181173769475641;0.181077022864334;0.180931021105607;0.179424196819869;0.179450324728223;0.17853573373298;0.176938677229897;0.176206622991084;0.17523107923064;0.173469751091089;0.172461630605262;0.171742624475024;0.169070957330308;0.168473895632544;0.167304125448101;0.164790398501091;0.165008412310228;0.163850903512022;0.162806835944783;0.163428293073016;0.163306321493833;0.163278680207547;0.165092815703235;0.16642307915481;0.166000569103073;0.168036788902869;0.169115444725985;0.16725267398222;0.169621601266453;0.168218180857026;0.165945198857762;0.166850082082006;0.165042514640834;0.16319949797753;0.16308043558736;0.160963699461427;0.158108000620814;0.158112625776375;0.155994964435615;0.151810698202478;0.154525837756212;0.151098669949357;0.146244433510341;0.151268077053231;0.143953348616478;0.142120877946338;0.144966471628136;0.13965091157327;0.138956852631291;0.142174678103946;0.1375115483752;0.135523034943736;0.141660264833403;0.135297088588107;0.130668756073346;0.143559627706728;0.128290785083503;0.128867185673541;0.149228394930537;0.124477413536613;0.140733415567236;0.151478482359182;0.130988182842198;0.148187881429646;0.15388770272264;0.13604222543438;0.149089287132061
-0.0803046146206128;-0.0521169357334033;-0.00827688527740119;-0.00117621241083137;0.0185283329495666;0.0193034930351412;0.0172366644994743;0.0145939611432978;0.0112387464701103;0.00608670450938766;-0.0035066303667987;-0.0124495598630702;-0.0183355213428699;-0.0265557344937444;-0.0265688073961393;-0.0335998503211267;-0.0392657594673911;-0.0423825373009857;-0.0451824950594577;-0.0484386958864637;-0.0510486653940814;-0.0516348039871194;-0.0516814604218777;-0.0503704747129763;-0.0448528255878274;-0.0396353745148623;-0.0298725911392603;-0.0187142261484278;-0.00600368978116435;0.00980922135346395;0.02644263832816;0.0466808647048112;0.0680509526184066;0.089720179587574;0.111726297432897;0.132573704303735;0.152888344751206;0.172656384684631;0.192166818166981;0.211279633614482;0.228693909629121;0.244995442832691;0.260579091719526;0.275221213700027;0.289141918616497;0.301653481861378;0.313675533824647;0.324633608790199;0.334248045047466;0.342903971978635;0.350419240543922;0.357116029261082;0.362241771385931;0.366768754176952;0.370562264419766;0.374243601856076;0.378367636888791;0.383056519511652;0.387687979751387;0.391388185689421;0.393726146830012;0.394201022810553;0.392160715789934;0.388339026749765;0.384792879983451;0.381956821831579;0.379464827507652;0.377281907633864;0.375222616459789;0.373153866364371;0.371520541759483;0.369718100929343;0.367904365489933;0.366751878504057;0.365537139384791;0.36462785707808;0.36348000916646;0.362184971689025;0.360743867419036;0.358926656477796;0.357082921592917;0.355216081866332;0.353183155307396;0.351293569980865;0.348865675935403;0.346202547867909;0.342576587310718;0.337937028601578;0.333150715509477;0.328907634230138;0.324934247342932;0.320916495506926;0.316929265426565;0.312796837231003;0.308666937616977;0.304237173832744;0.299644376981876;0.294861258057915;0.290016584172726;0.285293204954401;0.280647081711519;0.276261184752414;0.272382788743633;0.268484563448512;0.264956458035846;0.261749794682952;0.258922576467263;0.256312242370619;0.253819011269547;0.251485909250115;0.249360873646445;0.24741527991418;0.245519943176249;0.243533002894695;0.241578516728834;0.239786495669341;0.237872942752129;0.23571586803998;0.233597638548763;0.231526029449706;0.229258489875185;0.226909788219106;0.224623762840025;0.222703993177787;0.220782346971576;0.218967375583891;0.217221542431327;0.215619102055887;0.214161270778696;0.21264828983882;0.211083222199507;0.209678869144902;0.208352221258643;0.207002262332071;0.20533652822794;0.20417578439574;0.202946334322239;0.201675923142224;0.20021036037175;0.198791183047014;0.197474132652168;0.196048438953347;0.19442622183243;0.192758456613581;0.191114200077225;0.189674179219921;0.187688993033881;0.18582874555966;0.183859295585887;0.181969582888413;0.18010114088677;0.178063322567699;0.176011117403889;0.17419136524152;0.1724594987446;0.170730457357082;0.168919388245968;0.167400086587738;0.165871128327337;0.164730739945576;0.163678479938579;0.162663689858774;0.161815951696797;0.161071925202775;0.160434599713847;0.159984225593385;0.159543159868276;0.159164877942837;0.158846711912958;0.158768333554704;0.157843323794648;0.157523502564941;0.156535680681314;0.155569921975011;0.154514803968233;0.153496254694452;0.152563634473612;0.151456877118562;0.150264471010591;0.148922379851933;0.147604616633583;0.146389933401363;0.144998368821826;0.144588553027571;0.144392237914678;0.144442443979509;0.14472598400277;0.145306060507987;0.145997523741109;0.146763760652305;0.147710539959625;0.148670518447144;0.14972114095011;0.15074413777476;0.150152829511503;0.150766014856302;0.150050419533821;0.149660268012016;0.149044906915746;0.147961784037285;0.146171701840583;0.14441712825394;0.143063495212659;0.141574277632738;0.13997779538192;0.138556161230453;0.136241160549612;0.134986448602353;0.133607615717518;0.131991012990867;0.128504940903584;0.126450044295686;0.124940415883543;0.125778837193966;0.123724411322121;0.121395661923987;0.121287581870443;0.120452964034752;0.118786469562143;0.118002570186188;0.116935633253992;0.118192098147756;0.117606965603111;0.118612318587195;0.121144913746556;0.119324603922539;0.115320727666027;0.120255057264476;0.124586753317124;0.123425399081272;0.126443071416907;0.124975334698663;0.129069524732628;0.133417204841435
0.0312737745915992;0.0266764807581066;0.0495001555516484;0.0665371608854652;0.0651999703233665;0.0615148996808626;0.056031086132472;0.0464917791092743;0.0415307736679892;0.0401987325202284;0.0303804550091034;0.020336010918516;0.0160500743988761;0.00591994794461117;0.00297002309539626;0.00010545950350797;-0.00779171716459775;-0.0130193372125797;-0.0138749175934078;-0.0179656534130085;-0.0260136798117034;-0.0226638079737457;-0.0248098308486835;-0.0258868574796317;-0.0193551905902309;-0.0144478702556316;-0.00701551559609336;0.00393348886313382;0.0160720213562602;0.0297105530149271;0.0476265118093685;0.0658587765975618;0.0825321449387296;0.104062076623832;0.124218983577952;0.143934050332458;0.163810751769597;0.183126880100956;0.201759262319957;0.21995364824798;0.237151727049927;0.25349821101477;0.269038715661886;0.283504428768879;0.29716939037171;0.309913925627289;0.322037089967098;0.333047100426618;0.342803072181738;0.351564652780623;0.359165904099173;0.36577209249341;0.371390504371796;0.375998584154042;0.379949770929006;0.383732388049782;0.387956451545578;0.392736537531258;0.397610070226525;0.401735340599938;0.404240415452318;0.40465216909966;0.402576113506412;0.398762907245748;0.395292492713791;0.392538006682913;0.390299004300663;0.388481145214988;0.386754341933966;0.384863460898415;0.383186004890442;0.381525457640791;0.380138251629002;0.379347160987704;0.378147555878237;0.37742749521529;0.376543848575847;0.375314125847064;0.373921109373002;0.372436707216927;0.370902879081914;0.369012784497471;0.366958675970533;0.365326283732726;0.363169817929256;0.360641726215114;0.357074027425598;0.352375203024438;0.347652303204101;0.343710290465559;0.339872026101394;0.336312358006975;0.332518748843191;0.328576746213462;0.324529071677247;0.320326405835801;0.316018882314593;0.311537996524426;0.306899449300015;0.302264972525958;0.297806322028561;0.29364994513373;0.289728838911922;0.286105339501089;0.282924355175741;0.279855669671433;0.277073274175964;0.274576570220911;0.272290588078628;0.270151006515706;0.268135114541653;0.266295444593427;0.264342586255806;0.262512836897672;0.260636151119071;0.258848874064424;0.257032422572674;0.254884592847672;0.252716324000982;0.250632837033748;0.248370906404122;0.246052577693008;0.243889165589443;0.241752465627455;0.239890079778462;0.238049320394234;0.236324379435339;0.234705785116159;0.233197875313854;0.231587390890948;0.229893258465189;0.228382905800777;0.22695153181205;0.225529969807906;0.224032070578518;0.222652720962526;0.221340126818385;0.219902699689726;0.218339965245048;0.216780687592722;0.215333219157214;0.213871015700736;0.212158038207772;0.210269778087177;0.208545646191454;0.206801133242879;0.204877148552673;0.202816139915525;0.200710259079192;0.198736823792016;0.196691635197577;0.194541961718295;0.192459627841898;0.190485535147062;0.188514610122101;0.186645757656826;0.184800066230784;0.182912617311315;0.181576738657429;0.180286262194154;0.178979934815186;0.177792482728031;0.176822574913612;0.176052022321734;0.175547688959135;0.175147217625759;0.174364705243609;0.173759354404142;0.173329844274779;0.173003527082963;0.172709643872164;0.171924667885734;0.170764239793121;0.169766866971855;0.168669174695362;0.167415603254376;0.166251032612626;0.165119810468437;0.1637200756885;0.162092775344926;0.160672441936335;0.159274536383512;0.158051502696418;0.156928320821495;0.156102021091508;0.156226341942774;0.156006222493559;0.156426213451495;0.157547846153131;0.158543105817942;0.159457257510047;0.160570978503708;0.161912662274374;0.162531514304572;0.163818921145087;0.16297815525679;0.162378864660829;0.16130596118546;0.160257810971323;0.159800215987644;0.159283310255027;0.157853567960599;0.155524501789892;0.153562120969973;0.15232864878113;0.150720479811689;0.149601793889059;0.147300901519783;0.14555118078615;0.143961757854878;0.141725022206888;0.140087870667287;0.139241979245798;0.138695820257635;0.137953280568551;0.137445747445138;0.13574535890737;0.134998478801395;0.135717517666206;0.133912541454814;0.131809251302328;0.134762380391971;0.135130536584944;0.135520424233227;0.138483690099742;0.132589557550591;0.134404123376338;0.138388713277131;0.136639006928658;0.142717510631763;0.14905115047894;0.145725544400752;0.146906450049517;0.151494117591112
-0.0136047834488452;0.0352097796595307;0.0651986077893154;0.0334147622099345;0.0561834440748857;0.0582211163831691;0.0483862043001432;0.0515037535241654;0.0490544460623147;0.0295559531138436;0.0206305240894275;0.0266225450149967;0.00163258104815067;0.00321619104103212;0.00464455480841935;-0.00853374517311077;-0.0105560470063937;-0.0132203311010877;-0.0224621895719825;-0.0258029707511516;-0.0203989916955288;-0.0287550163425041;-0.0299621810694359;-0.019605998165462;-0.0246379314132667;-0.0187703795121496;-0.0080411902611497;0.00017705451698609;0.0109905736815378;0.0274932155684615;0.0418045872545208;0.0572798910098872;0.0814796800005798;0.099658219585096;0.120064512555605;0.141321469192837;0.159770851954996;0.178546084732954;0.198309256514179;0.215993216621289;0.231975078765174;0.249582176176859;0.264370684786468;0.277760246925842;0.292293510891736;0.304663696394114;0.316280596361511;0.327654941785351;0.337606089586037;0.345758366975807;0.353567746566192;0.360624987313769;0.36515066563702;0.370319306342442;0.374302309327422;0.377358630141238;0.381639742072182;0.386653090783997;0.391179259641498;0.395104547626237;0.398081720364736;0.397818640324782;0.396264695959802;0.392743939949864;0.388948509566608;0.386164095558645;0.384008203398544;0.381894454637002;0.379963417143741;0.378331104645148;0.376368905143375;0.374641960801865;0.373657476558414;0.372224624770697;0.371275719743202;0.370700109791271;0.369656652805635;0.368413383773839;0.367171539625503;0.365583898125933;0.363837093534314;0.362355493102626;0.360217574151505;0.358335456436049;0.35636199827995;0.353603626454553;0.350081475753868;0.345642170796257;0.340886608315798;0.336753107201971;0.333081043800537;0.329352702924446;0.325223155462526;0.321809787476601;0.317635394051425;0.31331476366788;0.30907739496029;0.304511581490541;0.299718584278982;0.29516913528872;0.290784414061369;0.286376248894501;0.282712960238291;0.279057935187384;0.275599268201101;0.272636075420146;0.269912343463549;0.267355226181217;0.265102365190947;0.262994159999586;0.260791301950372;0.258979812843043;0.257197597853699;0.255113651865709;0.253388995186357;0.251601856322224;0.249534496739417;0.247558482225138;0.245490745182026;0.243246245069756;0.24108326532121;0.238884254602353;0.23635880521107;0.234450874019896;0.232648634052635;0.230494915599345;0.228871085104077;0.22735943866522;0.225653866031773;0.223999772015361;0.222458637577507;0.220849791582924;0.219457676465818;0.218125838723382;0.216372656991795;0.214995366814281;0.213755195311554;0.212109128401598;0.210524349045281;0.20910788151144;0.207585125399099;0.205995383628558;0.204380637549357;0.202249739435354;0.200411284253009;0.199031145144801;0.196752024276509;0.194724571308952;0.192827576508542;0.190493952665343;0.188341896345676;0.186323690585359;0.184048879122083;0.181862426310789;0.18017208924833;0.178049318493435;0.176004864762294;0.174782965174221;0.172820255114247;0.171381601833973;0.170418239008611;0.169002376181571;0.168007374216342;0.167350283748899;0.166473412946612;0.165779194081287;0.165413240632988;0.164754919712862;0.164157166830211;0.164294783203371;0.163158647616236;0.162355826674226;0.161738422263563;0.160220816321603;0.159068777254668;0.158385534634559;0.157133816445891;0.155619075570752;0.154547038292909;0.15242814282287;0.150834848817923;0.150617137276768;0.148082635612062;0.147329251472612;0.147217752332656;0.14624558904486;0.146523127996432;0.147752464909364;0.148363062620115;0.1491849801876;0.150657684923846;0.150829009799495;0.151798008370116;0.153978391799772;0.153041215464654;0.153536700970098;0.154355093392194;0.151788891632061;0.151072471265094;0.150891399163384;0.148106028154019;0.147227809855706;0.146939038284364;0.1443356797711;0.142971314353344;0.142443417182891;0.138746926246856;0.138815973712886;0.137825968859108;0.13329540692928;0.134149952599798;0.132929982082949;0.128442825426952;0.130528662781162;0.129402812309719;0.125407796237721;0.127405223834241;0.127500799185538;0.122956975809829;0.124948175377608;0.126902067516338;0.120964306296452;0.127636131648187;0.128899324517851;0.123836045297973;0.138096744849302;0.125598322534525;0.121907713465466;0.142144192537893;0.133876541981615;0.133520727446588;0.145947137591452;0.139166162525;0.137831218088803
-0.0242179481455353;-0.0532828596727399;-0.0280390379717061;0.0448869758381699;0.0167675525125817;0.0217329067990616;0.0392906401013369;0.0223662801123964;0.00863732029488662;0.0174069654286844;0.00409659076251314;-0.0151073217528463;-0.00177869715857442;-0.0163663523902133;-0.0290280788221104;-0.0186980027137728;-0.0294771206728533;-0.0382628047737551;-0.0326848266000501;-0.033500152425899;-0.0467128423165758;-0.0363905268279583;-0.0391903701437732;-0.0481258734475916;-0.0321217371310952;-0.0270191736215697;-0.0229889214259639;-0.00772900651726321;0.00843902629409745;0.0194814651867253;0.0405508486962547;0.0638127545322591;0.0784811373142756;0.103945258874203;0.125806976861166;0.144975324986939;0.167533688562467;0.188797722396584;0.206743175562445;0.22532204669687;0.244350426342265;0.258632883777548;0.275570515654261;0.290977708379727;0.302992395880201;0.316476850442579;0.328876515944445;0.339030038382398;0.348678461793965;0.358109444153178;0.364748743376014;0.370858706478084;0.377528068196073;0.380612993527889;0.38454562124526;0.38852470353209;0.391998217290057;0.396635070461755;0.401864820354267;0.405224820243266;0.406986449618637;0.408333588446702;0.405396100208654;0.40090624935789;0.398076289945978;0.39468417745458;0.392010533767823;0.390170473830647;0.387941384726483;0.38539497690086;0.384172367236596;0.382279579096458;0.379715039834877;0.379152992520434;0.377610221804367;0.376232244101201;0.375318351408367;0.373895632603196;0.37207360987608;0.370661463812771;0.368856891170124;0.366241169207174;0.364706499746696;0.362767921553417;0.359925121719608;0.357424397677412;0.353704615822974;0.348652291207686;0.343906208063901;0.340012722098623;0.335562811546097;0.331719034957378;0.328340261180778;0.32379618491883;0.319919879673067;0.315662269833777;0.310899723358782;0.306291337544783;0.301720812451163;0.296826026257555;0.292199027916928;0.288109040308402;0.283654032983855;0.279977045101324;0.276873087682518;0.273392666274595;0.270469536017691;0.268015715490377;0.265508604997852;0.263072628367527;0.261097808544687;0.259050067797274;0.256884414836397;0.255258946641228;0.252920527324296;0.251009425292169;0.249227714518826;0.247000758573697;0.244740831058016;0.242665551241262;0.240330418135916;0.237789060808389;0.235877914847001;0.233569900435797;0.231391863885806;0.229855433719012;0.228011551385464;0.226292305450692;0.224858318719426;0.223242390444435;0.221548828097742;0.220280956878082;0.218874413953883;0.217154157656055;0.216104778119254;0.214546800161925;0.21310951234666;0.212059941026106;0.210481193311591;0.208888773254006;0.207736446274864;0.20633538341554;0.204411509449074;0.203161909532219;0.201430006869083;0.199421615738849;0.198147270956968;0.196025590009373;0.193849070430774;0.192269989073737;0.190237325376424;0.187977191338062;0.186250729910393;0.184572952770491;0.182348044586423;0.181011592721679;0.179299552885383;0.177072308361182;0.176380899749223;0.174990264421993;0.173535479477145;0.172824781013365;0.171968867822747;0.171033112955993;0.170715465232116;0.170396570869403;0.169389841646917;0.169700743546828;0.169199239559098;0.168204874499939;0.168352674714221;0.167480293932674;0.165884490633414;0.165629023657942;0.164589369199341;0.163100919834135;0.162653078964741;0.161833854768644;0.159670665275005;0.159389300091718;0.158353639526756;0.155433302959534;0.156259699337303;0.155111402462745;0.154059130297264;0.155261208024088;0.155028482192065;0.154801153324193;0.156405792585379;0.157425018589806;0.157308277230611;0.159298790303449;0.160102128109889;0.158913519970731;0.161407533517814;0.16075562945888;0.158621318384186;0.160462123411804;0.157806596698029;0.155958393310966;0.156683922613826;0.154277211635132;0.15154225794205;0.151925293091909;0.14993263803748;0.146015151156817;0.147913062091353;0.14414904171889;0.138479090114625;0.143303184566477;0.136214060083271;0.133208404035146;0.138834328436016;0.13148816213727;0.131197974800122;0.133780794360376;0.128115406571727;0.127611427268852;0.132098611267075;0.12448556968119;0.121165464252899;0.134400750024783;0.120119198981244;0.119946230190861;0.140267972263471;0.118784128820577;0.134151372135159;0.144388907198907;0.118559590473293;0.134497818329012;0.143984687468881;0.124874755267809;0.140266532593966;0.147192761920139
0.00216744780955846;0.0250430498497398;0.0279740638413033;0.0538353783674536;0.0568902870809396;0.0530450501273861;0.0540545929074246;0.0481094238001134;0.0356543210612847;0.0288013196262965;0.0265423926206449;0.0120572954444232;0.00659401685158083;0.00688539875792587;-0.00171165147319784;-0.00645962405675379;-0.00913929886212993;-0.0149583925705257;-0.0183159528926378;-0.0184991123937476;-0.0245710404531938;-0.0304450807447832;-0.0266594898234322;-0.0270106034657639;-0.0267423945719691;-0.0193742969257162;-0.0126360533935899;-0.00283405877170148;0.0100745877995335;0.0228055962531676;0.0376476196690789;0.0566244119859642;0.0760954545588936;0.0953605034766604;0.115572838262055;0.135057982814214;0.15371541469544;0.172749657194318;0.191557150069018;0.209216211574371;0.226733118107506;0.243114491242252;0.257823698637332;0.272604752268392;0.285997509685508;0.298559472742034;0.31067826321457;0.321706838729192;0.331331045381221;0.339951631066792;0.347696304960447;0.354088000861423;0.359307926634817;0.364244803453387;0.367904162853015;0.371581334569033;0.375931390186289;0.380629581860062;0.385248275903775;0.389291832991822;0.391775509963205;0.392256936702912;0.390415407861739;0.386656899177425;0.383277633347464;0.380650031242129;0.378260850984703;0.3762249112776;0.374548123785382;0.372818040495546;0.371029198755093;0.369608131209118;0.368086574339227;0.367071718355268;0.366002229843158;0.3650659029557;0.364132494401081;0.363076322791774;0.361791278046166;0.360233899178045;0.358542944317273;0.356803731638407;0.354635804225553;0.352950801912155;0.350840160222624;0.34804586626122;0.344500251846857;0.339916481490718;0.335022656777352;0.330834916536268;0.326999563284526;0.323251718427005;0.319321900836031;0.315300294998377;0.311170994873651;0.30683650472151;0.302307656682674;0.297598072784073;0.292867404363707;0.288254588533938;0.28371904719669;0.279416949252372;0.27563400316113;0.271791304685566;0.268456197497066;0.265461145419042;0.262647906636524;0.260191586929146;0.257970768317933;0.255790284197752;0.253746559325233;0.25185284512986;0.250018168812446;0.248178751456707;0.246457078818691;0.244752047318462;0.24288270762037;0.240829953147357;0.238779705926605;0.236814904868327;0.234740977581467;0.232412726358223;0.230273606028542;0.228389519021731;0.226484891030351;0.22479935814975;0.223241519064587;0.221708495148579;0.220212879436947;0.218754951890344;0.217303191555208;0.215928092810783;0.214736453353277;0.213337716718882;0.211916091079838;0.210798332833596;0.209553395710521;0.2082777798307;0.206914763927674;0.205489298120096;0.204160773509234;0.202861104194116;0.201279279302442;0.19945880536279;0.197978426090644;0.196428794609219;0.194618912170179;0.192679669288857;0.190694876739353;0.188845216428328;0.187018898701913;0.18499890460612;0.182973767735601;0.181224260257463;0.179510201642686;0.177618750064;0.175997049086889;0.174421873310719;0.172872693780809;0.171677102363855;0.170628160864424;0.169623398335825;0.168825845571384;0.168106241045915;0.167495941200392;0.167123306225175;0.166584359027912;0.166064349099642;0.166013426192907;0.165605367487168;0.16507058597996;0.164359391096973;0.163487076880178;0.162405501883764;0.161451494688365;0.160416440055483;0.159321353305549;0.158342007776226;0.156979934971032;0.155349141195854;0.154251068305298;0.153182831015478;0.151287704006338;0.150851075555039;0.150228993030831;0.149892219354848;0.150164243982587;0.150506387770348;0.151067551500648;0.152133551201109;0.15319049390667;0.15408012228847;0.155493872253914;0.155795104743296;0.155629018820345;0.15650423249195;0.15566257896854;0.155312251807652;0.15470365677216;0.153535525872264;0.152509889329971;0.151325483773428;0.149341636593135;0.147920083087331;0.147303888846937;0.144828722063992;0.142589156673285;0.14212623958913;0.138954221197031;0.137277058904483;0.137803719987621;0.134013166646371;0.134760248092858;0.136087554183951;0.132740339654153;0.131582641202746;0.13205669892212;0.130056796497248;0.129488470920943;0.131441194818433;0.129431948383911;0.129248271684727;0.135156443114462;0.129685889412367;0.128492271894384;0.133754910665341;0.13236183318548;0.139965506572097;0.138857347670604;0.136447619388464;0.141078002775635;0.140523829321491;0.140124928429119;0.147478713752621
-0.0516498425589674;-0.0062610411078843;-0.0248680725031808;0.0169842737427962;0.0394924065093572;0.024951872823813;0.0318276129670564;0.0343008627236561;0.0196848668817518;0.0129402046608199;0.0178335078946098;-0.0044060744461978;-0.00922519100446298;0.00033236242349808;-0.0208913949892712;-0.0249439390004682;-0.0195100938291313;-0.0263219899550484;-0.0329783753466631;-0.0315817434765677;-0.0390534455387783;-0.0429163569143299;-0.0284504629928868;-0.0328487390475533;-0.0312694677767929;-0.0197400626681442;-0.0148383730298794;-0.00551511647324005;0.0119349213604843;0.0280558244214687;0.0421037423085784;0.0652204593137992;0.0839649132544722;0.10280070699575;0.12596836550376;0.146870818983834;0.166620178806387;0.187031124026887;0.206146849629642;0.223211675360144;0.241880168460482;0.259604700162652;0.274278045601263;0.290385708785722;0.304153879244519;0.316464340085471;0.328931159652259;0.34030917836031;0.349928050775339;0.358867807864109;0.367121069874579;0.372536950165085;0.378589594797019;0.383403614674824;0.38701937831282;0.390883791293463;0.395150609305253;0.399583553501482;0.404143815698563;0.40820272181406;0.410295972864517;0.410821760615792;0.409209196146828;0.404579731236513;0.401217150889719;0.398571932368663;0.395890746783215;0.393859928843424;0.39221128804406;0.389983132813976;0.388010144601939;0.386788415027181;0.384721678623944;0.383583726448544;0.382762225556155;0.381525666733971;0.380421595406471;0.379402817127613;0.377922298484718;0.37608013918626;0.374603579834795;0.372549341349695;0.370201035769481;0.368832014351006;0.366330300611468;0.363470180706292;0.360032964887231;0.355271288448063;0.3502208497212;0.34622587245087;0.342287271542887;0.338237843165301;0.334720868797607;0.330799845948654;0.326532580074305;0.322418321034115;0.317939081978807;0.313251329140859;0.308725108576526;0.304178988430982;0.299376920312222;0.295263838144447;0.291506270283215;0.287562026452572;0.284445129859456;0.281405151257415;0.278445339583499;0.276007743533458;0.273794012557079;0.271455494997581;0.269415300606867;0.267837523350095;0.265519090022469;0.263735638971366;0.26197353335;0.260017840171005;0.258265372028964;0.256307619132592;0.254109485723823;0.25199379431077;0.249906349934153;0.247493056329745;0.245350897194732;0.243562145653333;0.241380787518699;0.239661518459322;0.238157150354861;0.236419431145856;0.234860220712996;0.233463575021062;0.231911810543695;0.230372731095021;0.229181040161686;0.227710206290728;0.226060774577564;0.225013374387112;0.223693055408263;0.222273407640043;0.220871312517507;0.219330281708686;0.217952203154077;0.216668952354407;0.214906029571391;0.212991909036241;0.211706451260116;0.209882251095987;0.207956445964669;0.206196070001207;0.203931018812951;0.202009237550188;0.200221723143877;0.198089839889966;0.196034797648158;0.194414941731616;0.192534586392124;0.190560019013869;0.189235024677045;0.187130409083169;0.185555817278805;0.184752082105447;0.183309255523806;0.182164684983279;0.18149968994815;0.180600458473633;0.179902691693925;0.179960133376954;0.179300340412476;0.178235465600885;0.178570063313498;0.177731141994983;0.176992529481095;0.176833211439682;0.17552303090049;0.174469573200269;0.173761427859459;0.172237842354354;0.170879699039415;0.17041650294575;0.168728864374294;0.166990085590043;0.166643635351027;0.16447170109442;0.163105472020186;0.162954200613996;0.161372581894433;0.161323150616982;0.161984168817115;0.161694810161297;0.162570221851925;0.164409042358778;0.164649071786991;0.16534428133844;0.167637622533007;0.167191846551626;0.167819359129735;0.169265992077659;0.166989001106974;0.166459522785833;0.166399315986687;0.163515111142413;0.162978092050189;0.162743722035954;0.159726182276998;0.157813779474308;0.157633683794119;0.153683427639087;0.151827207859773;0.15318079172044;0.148158375821487;0.146329586393318;0.147733851440858;0.141817721495894;0.143661666990115;0.142830213519532;0.137590832665346;0.140227423398238;0.138811728919936;0.133595683055766;0.136498461486792;0.137962588792945;0.131239158076608;0.135144882801657;0.138034555261261;0.128376925015213;0.144928028314126;0.138480822570833;0.129989537658308;0.149529723412932;0.139976836242789;0.130727200301514;0.14620368767982;0.138459914078209;0.136100030816894;0.153015269976609
-0.0184637353276484;0.0283090787769015;0.0449637951449252;0.0313889301251474;0.0611939250167513;0.0549136834168339;0.0401716731397175;0.0432436043777686;0.0381190346652555;0.0197047714719646;0.0205265634922489;0.0192607705933857;-0.00496202287773183;-0.00196593769939475;-0.00393807955881088;-0.0188822486461198;-0.0156899619409255;-0.0154796309694534;-0.0248008067949365;-0.0277820557275578;-0.024612899806328;-0.0365155169308207;-0.0371953439588758;-0.0282767434890927;-0.0322318327842289;-0.0252218662280071;-0.0155433275941537;-0.00950061159719093;0.00053820706940307;0.0175147487143081;0.0312878698186634;0.0469600263979435;0.0711745726145075;0.0868098077810809;0.107199018616283;0.129063152712368;0.147422179130773;0.165877236759101;0.185649637841024;0.203388274673162;0.219215874204288;0.237311235347542;0.252590134400934;0.265626836314479;0.280646667329225;0.293023680374388;0.30425344964109;0.315655442411581;0.32589691903139;0.334082865729656;0.342098765848068;0.349271599823025;0.3531317389789;0.359045668176846;0.362981745834227;0.366254492331276;0.370928282914343;0.375892172705795;0.380243832392346;0.384425202042946;0.387489623041353;0.387265401423391;0.385768227883841;0.382508470652969;0.378670287687168;0.376333057156895;0.374468913139536;0.372416129045215;0.370585915249741;0.369085520006972;0.367187116644884;0.365675717112514;0.365081706619003;0.363477301303195;0.362611450872253;0.362128179419761;0.361040661613825;0.35999137643445;0.359091534601542;0.357541019768381;0.355794376962351;0.354651331133058;0.352480991818986;0.35082739908517;0.349256167002024;0.346680373462485;0.343319964864252;0.339130160108392;0.334495181346235;0.330384330918524;0.327097871595027;0.323618005575095;0.319585704189851;0.316486840986554;0.312499308976667;0.308302794773381;0.304323285032166;0.299873793851719;0.2952387248775;0.291085678383084;0.286837359592137;0.282475950479435;0.279100545356024;0.275562324393881;0.272186621570072;0.269573701054076;0.266950388003772;0.264503778376881;0.26246411398294;0.260513573666925;0.25846353932282;0.256860248692369;0.255345099149865;0.253149719382903;0.251669067092089;0.250152188613039;0.248327898773049;0.246587935132748;0.24473236182881;0.242639050254879;0.240614198404519;0.238646215264948;0.236348626871501;0.234714359288801;0.233132720095891;0.231174829891544;0.229816948762034;0.228448307634364;0.226950286769649;0.225624805288426;0.224379723143411;0.222937731921072;0.221670942429554;0.220666473569804;0.219039572973919;0.217924585713059;0.216933672712223;0.215579432405778;0.214317959747124;0.213053260227949;0.211682197853057;0.21039926562945;0.209092207173041;0.207235117732028;0.205588292707558;0.204476458853238;0.20230488618818;0.200473502024907;0.198883307319561;0.196733920334179;0.194943994715274;0.193168801359092;0.191045217462272;0.189264905619238;0.187869613307521;0.185780780877524;0.183740400351473;0.182868877538999;0.180919954381561;0.17975123718636;0.179013381351192;0.177512400077717;0.176483778018156;0.175869543183286;0.174895145243239;0.174196813499789;0.174125861772857;0.173136599689822;0.172160754148904;0.172684887879171;0.171267684132466;0.170581459911519;0.170088447356208;0.168619738382967;0.167537393218113;0.166854227323365;0.165568995458775;0.164328195506725;0.16377395982019;0.161599597220665;0.160016554568008;0.159538832992783;0.157259493506662;0.156632032181403;0.156385372679424;0.154941420534191;0.154559870699488;0.154953830252754;0.1548094030826;0.155376344469144;0.15693442942254;0.156762237201967;0.156829660116218;0.158250465517541;0.1564067264455;0.157196681615565;0.158152379144397;0.155158269348766;0.154827019632676;0.154273494478045;0.151668543989605;0.1514534917794;0.151242790969766;0.148052587511396;0.146464405380901;0.146462275694312;0.142213179732359;0.141558995475478;0.142945299589467;0.135582551533304;0.138325884681875;0.136570958936042;0.132471173113886;0.13578145426067;0.133632899866348;0.129826940852457;0.13259362409007;0.13165479307262;0.126560579376874;0.130360235207182;0.133021176736859;0.12517088561517;0.13093616166147;0.127999226681788;0.120406945815251;0.14128990103061;0.134482368811813;0.128627446516481;0.145581663557644;0.135451958019605;0.137559594119333;0.147745629706931;0.136645669542952;0.139581132329555
-0.0515252766296064;-0.0475840217329832;0.00311399778347092;-0.0103364290589053;0.00178819238855427;0.0258911951362545;0.0214199880695738;0.0157991377427328;0.014491659916792;0.00310065668843597;-0.00800793546032526;-0.00038331281980502;-0.0138719731113929;-0.0273732588490058;-0.0238929316937849;-0.03260264572866;-0.0375651312973041;-0.0382858689510567;-0.0419580842237136;-0.0477015516599377;-0.0489356394724598;-0.0492936298598995;-0.053663386104768;-0.0458645309582772;-0.0426440176804916;-0.0390546363735987;-0.0285330265895862;-0.0171523363863109;-0.00535942900321198;0.0113125573351466;0.0306128862392246;0.0474069811835989;0.0687347058312268;0.0900524265265673;0.110117236116913;0.132079008501123;0.153367766903134;0.172806613046539;0.191568558708864;0.210229959795102;0.227543037478895;0.244279079474373;0.261064929909823;0.275475588426403;0.289174119464279;0.302447672742124;0.314742523384524;0.325972439060191;0.336194140639208;0.345240392874826;0.353000826212739;0.359790355407715;0.365637213264068;0.37017995215091;0.374386837348471;0.378128779965677;0.382293717641774;0.387282139870675;0.392231968649486;0.396041844456271;0.398531377332052;0.399037880174684;0.397041731568053;0.393225260598476;0.390093906951555;0.387287648867846;0.38507042390892;0.383110134786704;0.381090030458013;0.379222038740137;0.377684618933199;0.375971436952306;0.374432810222836;0.373400365381615;0.372334952037522;0.371459042399765;0.370605999077797;0.369414810715428;0.36800407432188;0.366560330008631;0.364714948143845;0.363018211628168;0.361164543699446;0.359265811612337;0.357130360228488;0.354717080963124;0.351160285448714;0.34658351223552;0.34198507173179;0.337935042782669;0.334088864333069;0.330604079451309;0.326618160687706;0.322784179628624;0.31898872814014;0.314672157636617;0.310322812897437;0.305825712067971;0.301186109156053;0.296678781285708;0.292305939911897;0.288160389820178;0.284198148924656;0.280772243257705;0.277520081903081;0.274406776539315;0.271831339936298;0.269421599980441;0.267103714527286;0.265048633676254;0.263119986828926;0.261235925998593;0.25960430537931;0.257705214006812;0.255899557646356;0.254298199461533;0.252501885632766;0.250518230850962;0.248538207353421;0.246543341491664;0.244405621490128;0.242217605846806;0.240117176111702;0.238247267142537;0.236587955820384;0.234901915060997;0.233220685664806;0.231846107288061;0.230465233785363;0.229014481729743;0.227678366637641;0.226421174004119;0.225098981250582;0.22391438152957;0.222559547213135;0.221304557810128;0.220281461729477;0.219106243971513;0.217595535316052;0.216343067158773;0.215192201561132;0.213797256568202;0.212302959651163;0.210654900090428;0.20902740716808;0.207706458134674;0.206056871059344;0.204110671482048;0.202239707215598;0.200422996773756;0.198583734731241;0.196747720252027;0.194897529732872;0.193016510697981;0.191271356816143;0.18975074249378;0.18787664155002;0.186299746928574;0.185132644863581;0.183778923351891;0.182886015593591;0.181808956946397;0.180727319994516;0.180004107030364;0.179501075132351;0.178910295588024;0.178364846869796;0.178318681619734;0.177530373815108;0.177034440944426;0.176899189822601;0.175933030973882;0.175247658441708;0.174450233021752;0.173270619197406;0.172419641337251;0.171588315041346;0.170162019774446;0.16915621815701;0.168430177958106;0.166228043031894;0.165433644514189;0.164711892084301;0.163006535949919;0.163025436371255;0.162656300101596;0.162191251078946;0.162869327118836;0.163535299463325;0.163744769114042;0.164700913740749;0.165621519679282;0.165473120164543;0.166774199270602;0.16727086642181;0.166014953793235;0.16636861054756;0.165095483346493;0.163702158004887;0.16310212110082;0.162091576866865;0.160431646361302;0.159052240558501;0.157427951566786;0.155276917941265;0.154067551741179;0.15205853225984;0.15018609187141;0.150183452882658;0.146000258982857;0.144494351888067;0.145488643151986;0.142981515463348;0.140286388456871;0.141016226099152;0.138158883648245;0.136073473842998;0.137810340846337;0.136067829952637;0.133714551725829;0.138717636698649;0.135728143430375;0.129768324873676;0.138328333154636;0.12840418287453;0.13099552267517;0.141617118672519;0.130977672417383;0.136209959502113;0.14757441857469;0.138360164556763;0.143358460518042;0.148072802569785;0.143001858037084
-0.118707394783253;-0.0851024740714891;-0.0300087929542356;-0.0333952037074919;-0.0121481318099414;-0.00390321784917169;-0.0103148004358097;-0.00977500837807063;-0.00942752315754125;-0.0200910077231227;-0.0271942126553755;-0.0226831814999485;-0.0385120715563075;-0.0440440369429997;-0.0417936301990186;-0.0559861474980341;-0.0545410491501038;-0.0546180332128873;-0.063616290140927;-0.066640814471597;-0.0608103646929201;-0.0674677545021963;-0.0712168067436119;-0.0631591557906101;-0.0628939625523849;-0.0571984722728155;-0.0471030631224246;-0.037985143218114;-0.0267432112887971;-0.0108441800736898;0.00386981641067076;0.019540108883604;0.0428896346481432;0.0598880654603064;0.0780356129755126;0.0984352704207246;0.117664930896347;0.135658991580288;0.153842767575621;0.171301186237048;0.186352838266679;0.20301203530004;0.217495629064133;0.231004769981709;0.244754336386798;0.257259947441405;0.268530259090296;0.279256901030063;0.289000128065818;0.297220530959661;0.304834265055345;0.311632065048176;0.317045056371631;0.321910026517471;0.326161066522375;0.329638164956458;0.334010139255258;0.339087776219504;0.343838240333161;0.347885031182119;0.350969741095567;0.351534600000487;0.349781482351582;0.346859681618943;0.343750540292455;0.34148825990138;0.339737262890657;0.338056005178026;0.336543987767191;0.33529297914596;0.33383905514368;0.332316885336162;0.331667301624014;0.330562054636047;0.329899214372828;0.329435224646286;0.328788359574913;0.327971819576725;0.327002975113905;0.32575097538824;0.324341518151708;0.323228955715435;0.321721596254725;0.320168524295052;0.318707555085807;0.316544358588237;0.313388126977146;0.309390650591868;0.305213488072461;0.301500591461528;0.298168151135685;0.294757139754179;0.291039669014698;0.287879517300668;0.2841369060154;0.280248214593112;0.276323788644706;0.272062040861724;0.267684098462776;0.263567400984917;0.259462995999265;0.255351041332198;0.252007604671197;0.248595476945363;0.245544250857247;0.242935664974109;0.24052306024634;0.238269066338522;0.236295194502031;0.234504676126872;0.232714458841863;0.23118311277032;0.229602542347791;0.227898797711889;0.226450946468248;0.225066676167214;0.223361858648957;0.221637733770849;0.219881514919937;0.21801798995122;0.216119778969813;0.214146906303317;0.21218897243373;0.210469629431739;0.208893410064412;0.207275782274803;0.205965166549374;0.204665242774226;0.203260721714381;0.201954059182259;0.200761763074993;0.1995037671272;0.198325780654429;0.197271347923057;0.195843864351946;0.194795705129269;0.193830612073127;0.192591152130132;0.191300703538165;0.190103618836937;0.188860378046236;0.187547440323505;0.18617704806782;0.184453596384127;0.182784123590352;0.181692205377828;0.179700983045083;0.1777124406804;0.176077817849468;0.174171194308834;0.172333349987062;0.170514119032351;0.168460517428857;0.166549816772936;0.165118540088921;0.163145242452677;0.161230537217212;0.160031181865712;0.158399919469216;0.157240592846088;0.156105629503606;0.154737455579038;0.153775744859514;0.15317702213967;0.152431967599315;0.151663925374098;0.151195852581741;0.150416420749519;0.149718933927159;0.149599832629367;0.148731375138704;0.147831199550658;0.147180815791927;0.145902894984776;0.144926573113564;0.144144805003653;0.142843790519951;0.141518686853153;0.140613510969047;0.138873431963798;0.13746291194402;0.136672737464644;0.134533928539473;0.133735173907148;0.133065483250518;0.13222678689032;0.132155540831518;0.13242969610737;0.132257997523039;0.132534044254442;0.133591488980248;0.133646605908056;0.133767024988097;0.13560694204322;0.134577501577436;0.1344749106209;0.134711918787473;0.132555906924289;0.132194754158233;0.131476287566898;0.128761378029966;0.12768519498325;0.127116994393694;0.124421365877604;0.122727850484225;0.122700600912707;0.118790694347147;0.117871915314688;0.118744851917252;0.112958521418998;0.114266509428636;0.113342131820464;0.110076105206654;0.110927385200712;0.109615704949219;0.106087120882269;0.106872115758932;0.106521703420905;0.104346554673365;0.106338752970324;0.105166250104517;0.102309528329845;0.107201686862494;0.107899885145307;0.0958831443442232;0.108771397033575;0.106688573481378;0.102288806656227;0.114654500808485;0.107914194645819;0.105417127604461;0.117333812937292;0.114049715363189;0.119479026468506
-0.0512910885342376;0.0131064564995755;0.00213187717748921;0.00293342474649323;0.0341063789579778;0.0228397884972755;0.0206867269080261;0.0237355583752877;0.0138729773652555;0.00300583736867689;0.00649455244628247;-0.00311787304402741;-0.0205870736495406;-0.0139190824281966;-0.0256638058106679;-0.033019834691115;-0.0312581521521532;-0.0380185674735717;-0.0451257408347607;-0.0424719466485465;-0.0441829279379596;-0.0547620065709528;-0.04887471682256;-0.0481694100658689;-0.0512328112495659;-0.0416405570766401;-0.0328435044711651;-0.0264866867002296;-0.0149818890176221;0.00074401881499168;0.0125286751690152;0.030670395940505;0.0521288218225227;0.065784942599416;0.0871923863682832;0.107489842736341;0.12507072427921;0.143682162367721;0.162808352307672;0.179496085179021;0.195479755461969;0.21249198948659;0.226130140470427;0.240359875512382;0.254828674546736;0.267165253120562;0.278956546402564;0.290112711046739;0.299787001305439;0.30842885384582;0.316862237930151;0.323136728665113;0.328296142665156;0.333954196891843;0.337779326118107;0.341511046623985;0.346364592852027;0.351273969616787;0.355967828469936;0.360588124151247;0.36318024092787;0.363295311421005;0.362272674341217;0.35884577889981;0.355360952592327;0.353103144340804;0.351009110160685;0.349019502053689;0.347539369651726;0.346207945180667;0.344511772353254;0.343464176848358;0.34207165220589;0.34093945166364;0.340284077716197;0.339666906329617;0.338804090839921;0.337910740877244;0.336786398349809;0.335214223457808;0.333924214001598;0.332750045493724;0.330666752327139;0.329450247141063;0.327787115462353;0.325301405794033;0.322155801179303;0.318072757518057;0.313561889285409;0.309666208414618;0.30627498518564;0.302484884352475;0.298855377742264;0.295413262106028;0.291418245224441;0.287373865379444;0.283266069645514;0.278680324284131;0.274010087465497;0.269724804778342;0.265369282252324;0.261146774595366;0.257685325595078;0.253902462840875;0.250749330177479;0.248027195187222;0.24531552202667;0.242901321736125;0.240860125018618;0.23885738115726;0.236856337742754;0.235341030219544;0.233616379509944;0.23167178628602;0.23023700263999;0.22847447112579;0.226704351039755;0.224915537802758;0.222986425187618;0.221033403748127;0.219104086173787;0.216901110560205;0.214634924489784;0.213111498683275;0.211375293628107;0.209619611328687;0.208258838242768;0.20675240352943;0.205316460264864;0.204028477763315;0.202657520399154;0.201272375948528;0.200202509902845;0.198885916190047;0.197446966047221;0.196511337690667;0.195339999114077;0.194035598146017;0.192875851872324;0.191561200439385;0.190132079337074;0.188861585631482;0.187487046947856;0.185568800463387;0.184140450144141;0.182911889381933;0.180712966390922;0.179119705978412;0.177149489767283;0.175121087318483;0.173482636956226;0.171528102161949;0.169268236576937;0.167516187685479;0.165939344026136;0.163888145354744;0.162317327561263;0.160763741566565;0.158946082449392;0.157921285476716;0.156868423683576;0.155562838350325;0.154766295172861;0.154045879238211;0.15315415817052;0.152728675481282;0.152279311151778;0.151294287540368;0.151198313183814;0.150949124990628;0.14965609978458;0.14942458080478;0.148422837142632;0.147174111476173;0.146701961400922;0.14566905531325;0.144089489400282;0.143361662510042;0.142427863270176;0.140596821816913;0.13969170617823;0.139025993298772;0.136594750728208;0.13653872313707;0.135829902739787;0.135096510676646;0.13571638980706;0.135856504203187;0.135700065857921;0.136610097125642;0.137276701456836;0.136815303195036;0.138498087770659;0.139342290684577;0.137808312824836;0.139352287186903;0.138044282987383;0.136370802619623;0.136687372691998;0.134577975221432;0.13284511629385;0.132945081556594;0.13163785659378;0.129345774450089;0.129061048212453;0.127477034427813;0.123310928433188;0.124910305726845;0.122979745114448;0.117854197597843;0.121452986278924;0.117695169301549;0.114175779410879;0.11711775757355;0.112921513923208;0.113564326552213;0.117264115090162;0.113577752109055;0.110813975325363;0.114585175051738;0.112078743663045;0.11076056017203;0.120571212530903;0.109170478239113;0.111987064386921;0.125827110896662;0.109628226389752;0.118901752421561;0.129919946271132;0.113876154777646;0.127917942569138;0.137200571812439;0.126183817912042;0.136782573200042
-0.128730679540949;-0.0900258497056777;-0.0274751883962988;-0.0558612918069588;-0.0150431416350258;0.00613872170347405;-0.0176596912729854;-0.0208661465012771;-0.0134246006265708;-0.0266725596030593;-0.0338084182510421;-0.020581274982495;-0.0435178887050736;-0.0516533129246732;-0.0423978996879295;-0.0582373083233852;-0.0621745716114305;-0.0582338901725638;-0.0665066884450561;-0.0757293997408986;-0.0655068905457078;-0.0708786594600964;-0.0813829573804829;-0.0639117826556506;-0.0686496038958347;-0.0655897971144327;-0.052316799835831;-0.0433308347484613;-0.0333722804979238;-0.0137811049956362;0.00373855704371098;0.0166287722860795;0.0431120249686105;0.0623570531902718;0.0804766962737924;0.103392662995818;0.123517736102614;0.141792799092992;0.161186913138237;0.17978329776827;0.195254886923832;0.212641982887857;0.228553485617979;0.241180499582812;0.255884448719335;0.268680032654409;0.279919455801146;0.291059702015101;0.301226862536583;0.30932849488701;0.317025950991816;0.324275719442515;0.32895598313292;0.334257515232514;0.338682541030514;0.341937540949724;0.346367196090595;0.351421237776626;0.355910660660772;0.359943823227851;0.363196276798829;0.363371005937818;0.361598509349773;0.358799839204425;0.355208013042916;0.3527886296656;0.351015834442003;0.34907285927211;0.347326248914388;0.346149831215156;0.344590984108608;0.343029005477994;0.342312774796857;0.341021823937729;0.340213917701657;0.339866422005643;0.339022359543979;0.3380948829687;0.337351699868421;0.336151100553075;0.334504000192172;0.333655116543381;0.331997288873061;0.330399943895901;0.329073080172528;0.326876847459729;0.323648200319245;0.319640913829515;0.31536645342571;0.311463076667582;0.308198406338212;0.304917339691976;0.301061092262157;0.298107322067388;0.294461018567683;0.290416730558771;0.286546839761425;0.282366688175086;0.277936216288917;0.273812776130097;0.269780411252325;0.265569277577137;0.26221367068943;0.259085554417279;0.255852510334185;0.253297159940002;0.250893326702241;0.248617647847318;0.246771108247634;0.245107149715384;0.243205642687832;0.241700940398915;0.240205737370192;0.238436505604556;0.237093697662774;0.235805180641576;0.234068564351937;0.232391219138009;0.230746554149144;0.228901467403476;0.22699489080923;0.225173299356918;0.22318219673118;0.221549262092623;0.220158367485428;0.218449186735881;0.217170913361001;0.216024568077938;0.214712742174637;0.213460525531985;0.212333904201776;0.211096567735177;0.209973166665097;0.209135506274104;0.20778409524238;0.206693473748824;0.205897621882768;0.204545730377476;0.203374608970118;0.202389522742078;0.201152344167007;0.199820969164799;0.198661198874043;0.197068726203867;0.195413549480478;0.194423095992016;0.192565777831667;0.190647786291767;0.189156739643267;0.187275502292972;0.185497630747578;0.183945652630066;0.182003194433903;0.179972358788889;0.17882899837778;0.177007478744622;0.175081829812247;0.173979649573089;0.172271354811191;0.171055649988809;0.170362431276872;0.168990519791263;0.167889735388702;0.167384570475467;0.166628656161379;0.16577423209423;0.165756356687779;0.165000411033921;0.163698929101646;0.164070156962229;0.163110719738313;0.162085142988546;0.161666136960145;0.160201535130351;0.159111750553232;0.158671256653821;0.157498161715013;0.156002117311552;0.155516052046959;0.153806253456055;0.151740169607632;0.151757538905934;0.149364055696679;0.148503771999004;0.148528593413531;0.146979975008924;0.146255015888679;0.146689298206463;0.146242913074868;0.146197241674773;0.14774093056766;0.147444072463917;0.146851573333543;0.148556412201905;0.14701701632307;0.146625318191821;0.148169249290625;0.145031784554409;0.144360748531905;0.144321995502564;0.142212516921149;0.141351957196204;0.140818335490997;0.137355049100391;0.135080447106243;0.136987860800599;0.133867912009468;0.131226761558292;0.132870827874284;0.125919321618967;0.12662039163119;0.128660502091526;0.121395661923987;0.123941410662065;0.12453855942859;0.118165986827482;0.120824096063081;0.122290738635549;0.115643228744236;0.118462140204336;0.122130250357405;0.111539794257965;0.11781494773841;0.124058532540814;0.106781140178333;0.125975795119648;0.123013757185212;0.109441224941392;0.126222437628795;0.124791448898622;0.118854527857149;0.134937975610416;0.126943834364773;0.121089064908678
-0.00590259163952331;-0.00747593892927736;-0.00279479325855505;0.0317417752495235;0.0173510950246565;0.0203206283332461;0.029960447003737;0.018847338300543;0.00470763851102915;0.00354953615946218;-0.00171987053320521;-0.0120463420439487;-0.00935144712481497;-0.0218373617298051;-0.0369556907433681;-0.0324994947850158;-0.041278174244985;-0.0478416120167314;-0.0467229823584141;-0.0500663943227322;-0.0577729530672056;-0.05519593527255;-0.0533754300871996;-0.0622065614958054;-0.0538061414851022;-0.0500872921544593;-0.0454947063414695;-0.035829025446416;-0.0245160426214749;-0.0132215949192811;0.00303924919483095;0.0236840046083615;0.040165908947262;0.0613562084087511;0.0821311374831871;0.101689240890171;0.121377914734798;0.140947128361472;0.159212936262533;0.176647990406906;0.194617552503235;0.210100522715036;0.225892266729605;0.240677159893694;0.253965432250164;0.266804260144751;0.279058017761187;0.290171837524442;0.300085044196934;0.309145621005372;0.317214157595021;0.323402585826847;0.329515999852967;0.334630016668258;0.338898095000464;0.342936590102022;0.347433907725451;0.352468182377503;0.35757436025253;0.361919671509004;0.364630471567108;0.365595790160496;0.36444005727308;0.360567103586469;0.357637981393685;0.355367646157917;0.353329308855997;0.35181725637836;0.350493210290103;0.34882582193857;0.347531442200666;0.346436814406554;0.345105299677633;0.344390918254148;0.343831338704362;0.343203844867306;0.342560817119558;0.341807382867226;0.340886132278824;0.339825770730173;0.338567654210532;0.337225835376561;0.335846551387886;0.334662863901613;0.332922944513788;0.330893621921115;0.32800213370832;0.323836003855876;0.31938695321482;0.315786979007095;0.312479243193936;0.30902351192437;0.30581078235426;0.302070246627447;0.298431237877106;0.294569259113736;0.290489123314411;0.286254583207881;0.282022188487179;0.277814421753571;0.273557824038727;0.269782997773238;0.266118036894478;0.262799880494917;0.259985833450958;0.257266465610311;0.254827581243899;0.252719743441248;0.250773545490459;0.248930701681024;0.24733030226305;0.245892428025983;0.244157831931775;0.242699572069855;0.241231736040625;0.239847073907882;0.238357702614312;0.236634833924491;0.234859847794135;0.233172763023121;0.231361232884014;0.229242954652288;0.227460613714107;0.226026643900708;0.224260338576346;0.222858934415587;0.221508685446617;0.220223119217631;0.219092650024823;0.21791554765924;0.216624609588237;0.215478062945095;0.214494773917732;0.213309894344915;0.212128167888459;0.211232447217842;0.210176334201228;0.209121377359165;0.2078820022473;0.206643008810141;0.205595613625913;0.204453788043366;0.202887087216931;0.201289289360534;0.200018340059205;0.198346213863213;0.196851301949216;0.195144606336271;0.193153691847684;0.191466296688002;0.189785432318082;0.187822225841246;0.185943216025536;0.184287535033406;0.182394045302861;0.180850464434651;0.179288658907098;0.177449922617801;0.176149480133335;0.1749772037927;0.173592797568485;0.172695552820629;0.171729338681057;0.170587570632188;0.169978915013983;0.169687969404692;0.16864688923617;0.168077972811276;0.167642414188579;0.166658360079291;0.166260585427892;0.165571666028568;0.164256618973458;0.16350365674439;0.162555761369391;0.161255467229892;0.16040889993601;0.159633406995852;0.157909477880393;0.156655516038857;0.155767440066891;0.153649215851712;0.153047454967976;0.151690159763037;0.150219049895571;0.150099443226574;0.149559199772741;0.148849014806434;0.149203900888972;0.149845794645054;0.149777301196662;0.15007097322442;0.15050589643225;0.150268276779157;0.150850337962926;0.150788691983227;0.149298333022326;0.149554971232309;0.148371863260324;0.146449497794084;0.14598871030155;0.144738711293173;0.142680532598625;0.141772091710801;0.140638906125173;0.138085344747663;0.137303987473103;0.136761805809615;0.132991326960619;0.133771220759155;0.131941637366881;0.129303132575068;0.130412187443197;0.127595288610113;0.125851481871316;0.126957912675641;0.126205247075121;0.125567122914159;0.127593890343002;0.127248423318818;0.125097369921297;0.127878355601641;0.12451721234438;0.120662313914099;0.133399727133072;0.125183747795745;0.129518900177397;0.130471359579737;0.123547692141328;0.128335720450089;0.140421384398984;0.135521373580687;0.142094010486141;0.151965963064036
-0.094434091491139;-0.0471673515861547;0.024365016780185;0.00412666676109549;0.022063642535047;0.0349015444083268;0.0189820201856298;0.0166518315538935;0.0216491780342601;0.00854221468775228;-0.00440435480006248;0.00492755927005923;-0.0154733446118491;-0.0230107517581483;-0.0130581105705375;-0.0271130261649914;-0.0333063192506728;-0.032836659160688;-0.0401618893757989;-0.0469366481765736;-0.0383562468859707;-0.0408771481097155;-0.0500052430388983;-0.0385871813360607;-0.0406972574965739;-0.0351298313689034;-0.0195844111575735;-0.0104903428544528;-0.00164848929532963;0.0182059386334206;0.0375639860649601;0.0530632069630941;0.0805060213082615;0.102593685366715;0.122358772719735;0.146483877285403;0.167766632349086;0.187293082514858;0.207995004695092;0.228044663655915;0.245048276683468;0.262744524360777;0.279435544119358;0.293665316569944;0.309018469026679;0.322531751698302;0.334367515777736;0.346110129295383;0.356809657373821;0.365247428062259;0.373429917726095;0.380967433092277;0.385766222002968;0.391018089597318;0.395463569706061;0.398607054133183;0.403127681882269;0.408589320243853;0.413267017340462;0.41709660134551;0.420529551144592;0.420486778699423;0.41802350467172;0.41517335188261;0.41112137761115;0.408094455872822;0.40584344725031;0.403445346363781;0.401281808741539;0.399847923267048;0.397959226628062;0.395896690262034;0.394956794884802;0.39346848525629;0.392355644220755;0.391753673662288;0.390514551534686;0.389230106261327;0.388218082120274;0.386674566328191;0.384690084126819;0.383323297356083;0.381307846220311;0.379300872995936;0.377400465666312;0.374687857778589;0.370997462328092;0.366532958404749;0.361839833289621;0.357502537940628;0.3536895149485;0.350285640288869;0.345901753741089;0.342360728790351;0.33845781559902;0.333952322900558;0.329642246995873;0.325004735315981;0.320088833620028;0.315571635566217;0.311221766000172;0.306728067768877;0.303015692859671;0.299454197503451;0.295916949954255;0.293087127602076;0.290419612475313;0.287826768597468;0.285585653293473;0.283608303527559;0.281530199316981;0.279592351170416;0.277911920534133;0.275838291102929;0.27402624844463;0.272424261033194;0.270454721158447;0.268462080056317;0.266505012099497;0.264363979290134;0.262130036368433;0.26005063962754;0.257650031802348;0.255573384290168;0.253978136344207;0.251961985600682;0.250399171439358;0.248994418249803;0.247369756846238;0.245838573467356;0.244473939011412;0.242919556745554;0.241498384277421;0.240435869662785;0.238702721805088;0.237241335454921;0.236163138487567;0.234646217929113;0.233178780924998;0.231869439324087;0.230355974934141;0.228743399694775;0.227247587025133;0.225281188993039;0.223429341842244;0.222160178011935;0.219982331961308;0.217624207064238;0.215903388306115;0.213810330491353;0.211796547203638;0.209939432021678;0.207703165170689;0.205404961379873;0.203858442428036;0.201818079275616;0.199739101706457;0.198586547624868;0.196580306305964;0.194974679295762;0.193987736779358;0.192487837258118;0.191337339125806;0.190816567548269;0.190022217301087;0.188958538847538;0.188614167890438;0.18794893864657;0.187034664759045;0.187478821257505;0.18614151188298;0.184989595529667;0.184160425809082;0.182486259687097;0.181361260902929;0.180765642489589;0.17939235965928;0.177721791237029;0.176841825259059;0.17486916001982;0.173105931798284;0.172726773518398;0.170846293794095;0.169262978054019;0.168951363958651;0.167767527053185;0.167729631558225;0.168924129986548;0.169115252407551;0.169185261944691;0.170614780463799;0.170925595213914;0.171114058542486;0.173571553370976;0.172663881942243;0.171877311193465;0.172646690146844;0.170008399302608;0.169775662788008;0.170181941088659;0.167305657595134;0.165610327545243;0.164945422122845;0.162240528870361;0.160807700506195;0.16144267690484;0.157212274583939;0.155316971487231;0.154811077864721;0.149357868888552;0.150439570891413;0.15204583518395;0.145838605384017;0.146807055809427;0.147113350715762;0.141240719399848;0.14157560130946;0.142924114703294;0.137856272104589;0.137860746188076;0.140657578215622;0.133632427251935;0.140681775076865;0.146666286230946;0.130655495726731;0.145656057788856;0.137844043178223;0.126846113215512;0.150428271994255;0.148438485002121;0.139088743795451;0.14922221005467;0.144668655213894;0.140037625872365
-0.0628642778784897;-0.0239804758598875;0.0208430308409503;0.0185192232480614;0.0254864190298986;0.0386507247186368;0.0361927242500749;0.0318058365235624;0.026915901463358;0.0151876310209872;0.00671740905881861;0.011995813894709;-0.00519767795434296;-0.0121164570537886;-0.00834462925268928;-0.0178643846360656;-0.0230976503151555;-0.024103747579077;-0.0292063707182441;-0.0342312745642198;-0.0306891620383759;-0.0330270796071945;-0.0380476126541754;-0.0290561067705033;-0.0272415304427896;-0.0212790439895424;-0.00849201045264318;0.00357296222438006;0.0155192689251737;0.0321569161380614;0.0511024403240607;0.0706925234392992;0.0949917966838939;0.115495999843245;0.136575241362444;0.159215818677608;0.180394741142807;0.200827548145001;0.221249764103819;0.240238055779489;0.257172864665832;0.274740462012134;0.291364300458989;0.305419280172556;0.32005779633445;0.333342580888682;0.34531560174441;0.356483861934389;0.366634575331898;0.375477303596248;0.383480166179145;0.390408898681466;0.39544014382673;0.400132859624146;0.403993726673636;0.407422011058396;0.411779178640513;0.416643978667948;0.421246902930187;0.425229324271974;0.427697533759615;0.427645097444038;0.425543563489091;0.421823864110213;0.417855470259908;0.414728596464659;0.412106490114884;0.409776845828193;0.407794142516617;0.405969623173032;0.403898502649086;0.40186525859157;0.400231518219917;0.398792061141026;0.397641425305699;0.396647194393044;0.39546616066433;0.394087043951962;0.392548729963738;0.390775271852035;0.388861099604354;0.387119655884013;0.384961134306603;0.382979203461327;0.380809694726469;0.378141435463973;0.374508619527543;0.369852828897305;0.365004706933267;0.360765295207605;0.35684195405301;0.352983987644351;0.348976142015474;0.3453531148722;0.341264841744519;0.33692006017557;0.33246710692442;0.327761619714178;0.323042054069841;0.318561474887112;0.314023984668746;0.309523757468939;0.305583475000827;0.301906155966413;0.298495307399835;0.295469856029813;0.292575464704789;0.289948842329239;0.287589394472831;0.285339614838701;0.283206041785222;0.281272918479895;0.279365383653351;0.277257188486539;0.27536569860451;0.273480780642061;0.271481704298261;0.269385743227992;0.267183491428358;0.264915133246362;0.262610458138769;0.260199651478466;0.25783226978137;0.255843351965891;0.253875111399692;0.251857343626488;0.250048058982793;0.248409609219122;0.246745582005184;0.245153199944793;0.243617240701919;0.241949530244401;0.24034967850211;0.238866790437643;0.237171896701835;0.235776777989938;0.234492529085287;0.232962040457869;0.231327866787407;0.229784438266126;0.228260579373899;0.226656044220302;0.224932814345279;0.22296755680605;0.221032320049726;0.219489207038838;0.217469115481984;0.215267909057224;0.213141649550998;0.211023207663661;0.209004919187749;0.206821269929001;0.204452397234663;0.202357825355007;0.200660760325402;0.198793173603415;0.196890322305593;0.195188170629599;0.193326771268373;0.19183090507907;0.190728496649121;0.189479571645067;0.188301626446288;0.187346562850066;0.186531368807617;0.185928622361458;0.185515804879498;0.184793087600556;0.183961174841057;0.183771629578386;0.182646937969732;0.181661983121586;0.181011724494537;0.179796438034816;0.178594567383744;0.177268684280887;0.175591153009431;0.174164319542627;0.173014782010782;0.171256732081887;0.169768343629277;0.168857558124817;0.167071110513545;0.165791472062184;0.165235367026565;0.164487938031067;0.164552447795609;0.164985805909679;0.165095610377533;0.165765516946505;0.167269462065997;0.168023999663932;0.168676923643081;0.169901263361766;0.169003145255905;0.16957719034324;0.169913144642119;0.168011018971536;0.167565179142808;0.166586525976815;0.164261880619794;0.162767096488314;0.161467241175688;0.159027561963303;0.157392944347065;0.156859636140764;0.15379214373731;0.152072524127755;0.151402037872863;0.148166378179626;0.146443717438914;0.145522157346749;0.140736598263452;0.142311708831415;0.141941090390711;0.139797095000263;0.140390421621204;0.139310087948242;0.134696283987134;0.133408702084644;0.13465423864206;0.132960771409584;0.138958347771496;0.135537156786258;0.13050502502756;0.140746987226634;0.133155408100755;0.129635019083912;0.142487067572024;0.134331513333685;0.132919247620178;0.142369872583551;0.144798655785446;0.146714868498316
-0.00867850801481127;-0.00027178328637547;0.0641652726581496;0.0395563845581463;0.0499933428090808;0.0648313336918757;0.0472826571770152;0.042076372585869;0.0457799779460277;0.0305959237298805;0.01393091340028;0.0231809886776754;0.00762739488026981;-0.0107090355709048;0.00012261864067684;-0.0125031533081808;-0.0188144652134726;-0.014901324477457;-0.0210482338592242;-0.031909936244505;-0.0252062938897827;-0.029019548217904;-0.0394636933422663;-0.025378787838215;-0.0253566665535792;-0.0270110115722563;-0.0136830639020344;-0.0024585178549852;0.00620061310289206;0.0239066378034489;0.04336557758599;0.0553945583097333;0.0802787910050876;0.100300723126564;0.118563356554847;0.141858238502793;0.163346616405905;0.182341766130901;0.201899440885556;0.221269208572367;0.237355491095591;0.255177344236937;0.272299530848518;0.285206262599771;0.300260846760815;0.313763984338692;0.325499023080858;0.336874118126487;0.347233590932365;0.355529602826771;0.363436183972722;0.37116443621508;0.375479571817576;0.380849150043136;0.385443501435815;0.388411460993365;0.392864112799312;0.398045012055833;0.402402980107886;0.406291144877407;0.409561562291259;0.409336576786834;0.406951197903263;0.40399339638082;0.399948262373802;0.397018003723216;0.39505536303017;0.392897273483593;0.390831984831042;0.389396362738018;0.387273558687364;0.385320723761455;0.384678078820544;0.382995043213483;0.381715355714214;0.381246199021821;0.380116888456745;0.378791822648402;0.37780484178607;0.376400003344003;0.37435403194157;0.373119410731832;0.37122762950892;0.369247186806892;0.367622386396101;0.365120865944149;0.361531609649339;0.357268950255154;0.352751251531768;0.348484352350664;0.345025609591565;0.341656471235359;0.337405909319293;0.333973499472676;0.33020807332297;0.325837229786862;0.321620763156671;0.317197028141612;0.312532397247657;0.308153726571752;0.303922190839673;0.29937795866038;0.295799619403513;0.292408024569304;0.288811258578945;0.286009675912255;0.283416676045653;0.280893958079098;0.278755242589073;0.276836363971593;0.274696560739682;0.272871111799582;0.271281644855733;0.269085760838589;0.267334810538994;0.265840727051329;0.263921804777285;0.261876372639674;0.259881768643201;0.257750025228722;0.255508773442762;0.25347454395692;0.251231104989467;0.249219080246716;0.247554028036969;0.245592105802379;0.24404667364239;0.242623560455816;0.241020244933968;0.239488178724324;0.23811634464961;0.23663071503846;0.235209935770033;0.234136615130192;0.232470875348052;0.230933660322384;0.230073063219238;0.228552530008011;0.227016718429002;0.225742082409076;0.22430393925733;0.222707909550558;0.221227863012637;0.21934136428818;0.217409215077685;0.21622129834283;0.214206500645881;0.211963917845419;0.210270553346794;0.208195354870786;0.206025812188424;0.204165846574871;0.202194253785629;0.200052896073612;0.198516230749272;0.196697441474905;0.194301069893739;0.19319393987249;0.19141365632321;0.189732188608847;0.189001889640247;0.187545032453435;0.186217321480706;0.18569465759888;0.185048312544582;0.183991623866431;0.183607154362563;0.182855776316315;0.181873385042758;0.181835426759551;0.180977464897574;0.179626105308798;0.179320291575203;0.177902826302209;0.176376988508863;0.175695731803472;0.17468802125038;0.173088722495526;0.172280395223168;0.170700795327551;0.168285294611813;0.168085903080555;0.166718220283407;0.164889170464649;0.165145028270836;0.163784471487689;0.163148151085092;0.163942747162693;0.164157547100958;0.164323313472822;0.165539302372462;0.165458816978159;0.165109202913513;0.167440763143116;0.166964824217011;0.16532686846478;0.167191782728786;0.164733659216102;0.16360897264522;0.164169715940695;0.161477067273069;0.159946752104314;0.160015487359562;0.157340781960698;0.154507055689167;0.155022586518206;0.152805230373402;0.14991178422618;0.153092122545226;0.146818321783009;0.144774470914722;0.14828313163752;0.14329605659523;0.144153702153388;0.144887830191674;0.139121229263416;0.139169752599982;0.141664176482501;0.13866725134285;0.140527190548528;0.144710287524935;0.134466860653802;0.137570086204792;0.146316751568791;0.134936197975169;0.146436233514402;0.150523523534266;0.134772390491632;0.150642079775186;0.150675441070241;0.144677623700547;0.162541932799366;0.160022706761949;0.152296702026484
0.015371753046855;0.0447806552929982;0.0494407790496259;0.0622155450294014;0.0700950387248888;0.0654209592582129;0.0545484029097577;0.0524999135756073;0.0459655674559026;0.0333311894035371;0.032291626520364;0.0231549690770782;0.00910579888467652;0.0095048628467715;0.00245220514762745;-0.00471635909019858;-0.00679965762119957;-0.012191205771298;-0.0189383802904915;-0.0208259942431126;-0.0218621408458944;-0.0283479484108493;-0.0266092491961711;-0.0264053678256003;-0.0267885366648397;-0.0185586226034897;-0.0113090270679426;-0.00326143484202423;0.00956035440659278;0.0253245220878566;0.0400511650366645;0.0558474677547301;0.075920018107376;0.0935386755312031;0.113706500578874;0.133401085173046;0.151859304922494;0.171132799886365;0.190208521495712;0.207282571734624;0.224207936204462;0.240421213692261;0.255416801699186;0.269638014715728;0.2836646315561;0.296159178574882;0.307922365986937;0.318989361822177;0.328798452201729;0.337312794119998;0.344996678691112;0.351376271804048;0.356767882663357;0.361795773673995;0.365545603956119;0.368945951710388;0.373370404640795;0.378068204654978;0.382508261086077;0.38661384511933;0.389048914491743;0.389437990038211;0.387738564076723;0.384180361422949;0.380795500039584;0.378240306271636;0.375883813648089;0.373926965132132;0.372422578815019;0.370829328573463;0.369129106197847;0.367904973401253;0.366425710661716;0.365167982614107;0.364366387130968;0.363678631837672;0.362870263647408;0.361878101843641;0.360666536844983;0.359178118198118;0.357503230385551;0.356036242601242;0.354052669762377;0.352453319987603;0.350696107783144;0.34821624995707;0.344950547022741;0.340617349934306;0.335977947337301;0.33213135078151;0.328695407324919;0.325199187231069;0.321544447976313;0.318101485065629;0.314208387555093;0.310276316943433;0.306215735020163;0.301794070246335;0.297288383324014;0.293051309479355;0.28889081701757;0.284773568731161;0.28123449302585;0.277634551131787;0.27453317581918;0.271783428001761;0.269093023841414;0.26678965006272;0.264801410462606;0.262769497375326;0.260802465448596;0.259265634555015;0.257518864648645;0.255577530350698;0.254050003308718;0.252448059581804;0.250693168227172;0.248835876069473;0.246872691494161;0.244856670066655;0.242807803366693;0.240623419084529;0.238531569459604;0.236835058883127;0.234930633532071;0.233169048310501;0.231724430666618;0.230229623298231;0.228716116955096;0.227297352316945;0.225894531579396;0.224474162110663;0.223223801386862;0.22186416734413;0.220291486757281;0.219091139612567;0.217927670171299;0.216538368722504;0.215147795489384;0.21376393405496;0.212401465870938;0.211011558744305;0.209375064851244;0.207502551659329;0.206020089223101;0.204506224780904;0.202397135996192;0.200634772291314;0.198739637677368;0.196691840123691;0.194782783206043;0.19285933066699;0.190774113393282;0.188827304933446;0.187172308040016;0.185210873073308;0.183387222198611;0.181875959724722;0.180195302859874;0.179149948643769;0.177975510087689;0.176747604582456;0.175989494067694;0.175359178208563;0.17454531970776;0.173933623990276;0.173512165807691;0.172818186147502;0.172317075396748;0.172194325219747;0.171379926357155;0.170683938417498;0.169916227405807;0.168527092471781;0.167494408381912;0.166530826076277;0.165216116053724;0.164128837595893;0.163139362016211;0.161397394108596;0.159998286832249;0.158678641496836;0.157270035816612;0.15652191792614;0.155729209762857;0.155055541258706;0.155039280791733;0.1556358549365;0.156116330488184;0.156926201531004;0.158248214721451;0.158701860762043;0.159521588627417;0.160466962233055;0.159861397433108;0.160766634292777;0.160492099834348;0.159117889943016;0.158679329920804;0.157235540333586;0.155888991277125;0.155469084413854;0.15397888708222;0.15139957611627;0.150103799792411;0.149064311224778;0.146562625703521;0.145868196863122;0.144297352796626;0.1396286289139;0.141007212727274;0.139895437027677;0.137843029087596;0.137985263507785;0.136959523077266;0.13517695601667;0.134955041279004;0.133567034191589;0.132979116279823;0.135592461867252;0.133921999939492;0.131672612372741;0.137429358365785;0.133545415887489;0.133075041306902;0.140993753106848;0.136843155387886;0.137435735134064;0.142154615227832;0.140237500277496;0.146943606923937;0.150188301269675;0.145647919350127;0.149234641132192
-0.0313567498297895;0.0166387449307124;0.0349439037834309;0.0119744737504122;0.0435143717774102;0.0399730193549844;0.0298588811531197;0.0373252974035507;0.0342329550165505;0.0148358435378073;0.0128364134438378;0.00882364944067123;-0.0166866005144313;-0.00475201472859221;-0.00883641478736886;-0.020238601994812;-0.0224473427997539;-0.0269297908240534;-0.0340875576380639;-0.0338554226227948;-0.0310228820323964;-0.0437280318022741;-0.0406956757101781;-0.0384103148403312;-0.0417782464218713;-0.0322971510782748;-0.0220809616577814;-0.0152188802989656;-0.00364532645192822;0.0133225671236361;0.0257926041991466;0.0429940547302493;0.0669556855203599;0.0826678752449639;0.102289301326571;0.123520679668054;0.142347389712262;0.161565260150007;0.181387703442688;0.199239013466747;0.21625852567775;0.233152555370177;0.247832272095817;0.261609451356736;0.276390176679839;0.289014828868149;0.300916051740719;0.312256263275894;0.322089421018324;0.330644341550829;0.339123617358925;0.346040659667904;0.351011936295222;0.356619777773169;0.360446977132273;0.364044917514541;0.368753027203826;0.373771557444561;0.378356427805427;0.382529951795836;0.385453628979135;0.385536662640552;0.384568572049123;0.381108517049798;0.377551997844838;0.375385141349874;0.373137356032671;0.370980931731681;0.369483749446426;0.368064275491749;0.366204229955244;0.364967973331304;0.363804372829913;0.362432224575303;0.361780588629096;0.361311013517957;0.3604362211602;0.359532178424699;0.35844131937602;0.356755538659892;0.355301305666638;0.353943063504661;0.351848207493821;0.350285640288869;0.348391543847645;0.345789659578452;0.342533101201525;0.338379998500214;0.33382631554037;0.329803332633113;0.326214725298356;0.322374617526576;0.318703936406905;0.315150510783019;0.311032938096231;0.306945849256748;0.30278120950348;0.29813277432882;0.293471761582326;0.289199391618032;0.284723454664638;0.280485751138351;0.276878345917645;0.27321657262491;0.269837560788604;0.267106927815076;0.264380583565521;0.261929713083742;0.259902785038316;0.25792687814083;0.255875681085603;0.254238379247268;0.252384533230639;0.25053640187864;0.24902593328489;0.247275731889229;0.245386810139928;0.243508122765755;0.241543674715824;0.239514789681791;0.23747372856686;0.23521837061118;0.232947189005673;0.231282001836296;0.229438473913405;0.227569293172955;0.226149585374761;0.224675851137169;0.223096603875544;0.221647862504365;0.220246700475842;0.218763144989504;0.217574391114476;0.2163689402837;0.214726057301773;0.213554323742443;0.212491210251329;0.211056179329162;0.209734122730186;0.208402043102001;0.206942459357444;0.205569746933362;0.204162997311533;0.202209681128855;0.200717842952118;0.199361747821868;0.197208903276175;0.19536655753175;0.193511176053222;0.191477028006829;0.189654149967495;0.187681834015088;0.185475063927997;0.183632607153854;0.182094004838014;0.179999505692138;0.178341861855295;0.177027194280719;0.175044135546555;0.173918326425901;0.172988262244637;0.171772938244979;0.171138209909251;0.170528203796774;0.16950236949265;0.169008080181956;0.168931499010467;0.168136046200012;0.167925023691265;0.167927644857123;0.166748822935865;0.166381414834012;0.165836642751415;0.16452808900041;0.163686330277405;0.162845820789039;0.161585358032533;0.160680552490309;0.159653478398914;0.157490734504718;0.1567538879576;0.156263993665657;0.15425732521492;0.154166639815588;0.154055848455252;0.153421556492065;0.154052009350788;0.154666140076155;0.154900470978643;0.15591691244656;0.157139304312464;0.157353385216887;0.158503817139887;0.160084484642562;0.158267409384767;0.159938718008329;0.15932423644028;0.157407109138857;0.158396604660722;0.156445701331921;0.154084642820533;0.153425822848064;0.152194771820746;0.149824086510048;0.148936821804526;0.148396982735194;0.144367712333386;0.144949371815913;0.142277597757249;0.138402450777887;0.141505873104682;0.137244055812237;0.135038483091212;0.136609561777068;0.131935399606394;0.130223699650467;0.133415905798374;0.132225432517414;0.13015459818387;0.132486256643888;0.128683046735969;0.12575319397173;0.138796842579587;0.132116036690756;0.128408385523261;0.143215120043527;0.128659275602985;0.132439593669529;0.142063289642538;0.132788626928999;0.139684337706109;0.147357054514044;0.138013489214742;0.145329061209502
-0.0735728281544908;-0.0502064679737904;-0.0115260392624513;-0.0092808842553589;0.0111073353481869;0.0224458483288266;0.0205295230424511;0.0118906858779331;0.0031863530239736;-0.00076758820671283;-0.00129054100419645;-0.00985185936545993;-0.0194594345066114;-0.0243715375188655;-0.0287887521041312;-0.0369800209776227;-0.0387619897769216;-0.0408933543739942;-0.0445158500199659;-0.0472102052755839;-0.0509374451759287;-0.0530180992614817;-0.0521161653662514;-0.0475030554677146;-0.0453797072435514;-0.0394609173385322;-0.0300270310256971;-0.0202419181438299;-0.00756600180199526;0.00985471138460256;0.0276768907425427;0.0465377013061986;0.065067521726026;0.08640361410841;0.108439908313958;0.129796080105263;0.150759316419336;0.170372717877254;0.188947601173268;0.20757286791449;0.225420047891633;0.240975614177055;0.256773716679597;0.271121647413396;0.284704297392456;0.297518798820305;0.309314152526012;0.319972772793868;0.329725009341951;0.338393156373175;0.345384282088851;0.35195484463034;0.357541811204222;0.361672011050017;0.36554207703135;0.369141502137295;0.37301483001787;0.377668246326444;0.382231511485011;0.3855784492422;0.387927803816357;0.388266604585169;0.386276119354099;0.382799342170723;0.379653618301878;0.376880086584524;0.374577034126105;0.372704107328131;0.370848709606922;0.368893548998462;0.367444825428412;0.366000615835032;0.364319759283742;0.363397276522813;0.362296378098062;0.361635058912096;0.360791707657525;0.359619446347518;0.358377481331009;0.357065825188293;0.355465600572737;0.353802784307791;0.3521549087173;0.350384887827784;0.348180812387588;0.346112634649048;0.342824397862777;0.338354346527184;0.333860038834402;0.329921308229363;0.326152323439167;0.322608697000509;0.318876218972354;0.315168187836943;0.311348230579712;0.307176425779758;0.302872440584315;0.298517155368478;0.294042257752404;0.289534999842465;0.285240183124138;0.281094181853138;0.277256283934134;0.273734300841551;0.270638525933115;0.267656106480296;0.265027846480813;0.262624212731951;0.260377346753441;0.258331260295994;0.256446886379382;0.254684616565206;0.25280275084117;0.251091022471348;0.249164811609464;0.247525614463514;0.245873226273822;0.243901806777306;0.241916098755774;0.239952785441928;0.237744310373886;0.23553154604403;0.233571238963568;0.231685779739181;0.229774339129045;0.228022784311776;0.226391696154943;0.224884922833201;0.223458619298309;0.221979853954303;0.220491170046419;0.219149330243695;0.217837799472968;0.216456791759085;0.215159769713313;0.213734450380989;0.212606339706732;0.211389425401554;0.20983810299483;0.208439097418266;0.207201315166887;0.205777072387826;0.204141037762787;0.202452370690617;0.200715567776335;0.199052298377626;0.197417406332103;0.195390461496364;0.193527654261962;0.191613791177294;0.189545147881561;0.187471398207267;0.18554909280757;0.183780514736934;0.182060386263931;0.180290866571577;0.178595484675252;0.176901865715307;0.175621736610065;0.174176642314062;0.172898818488058;0.171874085448604;0.170970144246278;0.17009146711411;0.169463167486733;0.169030512370774;0.168268339252325;0.167963064112799;0.167252290991682;0.166746782691944;0.166293576099113;0.165366270855236;0.164791223623676;0.163754077000332;0.162620616291686;0.161501003568877;0.16032307746816;0.159087820290897;0.157770497238771;0.157007988712271;0.155189868554209;0.153763678156218;0.152494649380261;0.151462293716111;0.150968368638244;0.150461862512535;0.150370246963547;0.150648346342312;0.151154085988316;0.151695271342531;0.152353319697824;0.153444805548794;0.154051328222895;0.154054114661937;0.154769148226027;0.154340470135755;0.154136477489483;0.15399108359072;0.152851849035158;0.151514862842521;0.149948401729978;0.148310323631151;0.147141505597984;0.145976007106803;0.143970288255876;0.14205798901092;0.140928864361776;0.137313460530302;0.137044779966027;0.135250300531264;0.13227813840505;0.130845462430169;0.130788469562856;0.128677614888193;0.128634454555446;0.127092901464721;0.125015410828816;0.123796020091728;0.121494634468545;0.121174649151172;0.12504014173116;0.123642999564909;0.122419793739257;0.121431503119162;0.118929449990438;0.12058967206031;0.129051227347688;0.130019006059113;0.126502809373919;0.127078353241793;0.128740464937417;0.130128460885265;0.135177548889522;0.136876247066972
