1100,1105,1110,1115,1120,1125,1130,1135,1140,1145,1150,1155,1160,1165,1170,1175,1180,1185,1190,1195,1200,1205,1210,1215,1220,1225,1230,1235,1240,1245,1250,1255,1260,1265,1270,1275,1280,1285,1290,1295,1301,1306,1311,1316,1321,1326,1331,1336,1341,1346,1351,1356,1361,1366,1371,1376,1381,1386,1391,1396,1401,1406,1411,1416,1421,1426,1431,1436,1441,1446,1451,1456,1461,1466,1471,1476,1481,1486,1491,1496,1502,1507,1512,1517,1522,1527,1532,1537,1542,1547,1552,1557,1562,1567,1572,1577,1582,1587,1592,1597,1602,1607,1612,1617,1622,1627,1632,1637,1642,1647,1652,1657,1662,1667,1672,1677,1682,1687,1692,1697,1703,1708,1713,1718,1723,1728,1733,1738,1743,1748,1753,1758,1763,1768,1773,1778,1783,1788,1793,1798,1803,1808,1813,1818,1823,1828,1833,1838,1843,1848,1853,1858,1863,1868,1873,1878,1883,1888,1893,1898,1904,1909,1914,1919,1924,1929,1934,1939,1944,1949,1954,1959,1964,1969,1974,1979,1984,1989,1994,1999,2004,2009,2014,2019,2024,2029,2034,2039,2044,2049,2054,2059,2064,2069,2074,2079,2084,2089,2094,2100
0.543948,0.549097,0.554355,0.556079,0.558300,0.558043,0.562381,0.566625,0.573602,0.579950,0.585137,0.588364,0.587221,0.594556,0.600794,0.601368,0.610156,0.609868,0.616059,0.618302,0.620888,0.624026,0.628479,0.635164,0.641737,0.640808,0.644053,0.645882,0.651804,0.653777,0.657557,0.658491,0.664443,0.666354,0.663520,0.667805,0.672824,0.670106,0.673311,0.673642,0.676575,0.679736,0.675564,0.678135,0.679257,0.677888,0.672237,0.673083,0.671249,0.674605,0.674922,0.671404,0.672622,0.663950,0.662095,0.661042,0.659687,0.659521,0.652343,0.652960,0.650068,0.647335,0.645701,0.644651,0.639349,0.639269,0.634206,0.635667,0.631846,0.629350,0.624961,0.625709,0.623948,0.623612,0.616820,0.621876,0.619711,0.615023,0.611716,0.607166,0.616592,0.612621,0.613731,0.610624,0.608883,0.609532,0.609043,0.609907,0.610843,0.615651,0.611836,0.622102,0.614650,0.615937,0.621836,0.620737,0.625174,0.626607,0.629276,0.626193,0.629024,0.628664,0.635815,0.637153,0.641429,0.638370,0.645404,0.650409,0.646725,0.653441,0.654467,0.655605,0.660095,0.659611,0.664519,0.668105,0.669892,0.674225,0.678565,0.673265,0.676009,0.684400,0.685971,0.690759,0.690492,0.690871,0.694815,0.703048,0.699851,0.706677,0.703999,0.705770,0.710607,0.712820,0.713119,0.717055,0.715299,0.720556,0.715803,0.722646,0.724432,0.725550,0.732014,0.727121,0.731516,0.733243,0.725984,0.727389,0.734094,0.730819,0.728212,0.733138,0.733122,0.735411,0.727234,0.731291,0.726135,0.728046,0.725308,0.721620,0.716093,0.715733,0.715774,0.711494,0.708243,0.706178,0.700866,0.699504,0.696011,0.690988,0.688786,0.683136,0.678876,0.671403,0.671133,0.663224,0.657816,0.656100,0.650283,0.643460,0.641763,0.635226,0.633102,0.624617,0.618251,0.612335,0.610915,0.610702,0.604241,0.596672,0.594175,0.590638,0.585336,0.577655,0.575154,0.573484,0.565214,0.561531,0.557496,0.556408
0.507253,0.507189,0.512092,0.510776,0.509379,0.512375,0.512947,0.516715,0.517697,0.518750,0.516767,0.522027,0.522118,0.522454,0.524411,0.527919,0.529720,0.532268,0.529941,0.534041,0.540670,0.540493,0.541632,0.541268,0.544129,0.551122,0.551617,0.553481,0.557751,0.561417,0.562984,0.568998,0.570466,0.579360,0.579333,0.586117,0.589543,0.592959,0.597759,0.606470,0.611544,0.616713,0.621139,0.626630,0.634665,0.638356,0.643688,0.650203,0.657776,0.657849,0.665522,0.671558,0.680089,0.688253,0.695446,0.697367,0.706802,0.709437,0.722845,0.725051,0.731693,0.741935,0.745024,0.751742,0.752822,0.763718,0.774085,0.773812,0.773850,0.785698,0.786316,0.792425,0.796097,0.798213,0.801122,0.809518,0.808028,0.812343,0.812770,0.811834,0.814972,0.816224,0.816574,0.816554,0.815194,0.816897,0.812921,0.813335,0.809685,0.812462,0.807711,0.803024,0.799644,0.798983,0.794308,0.792506,0.783349,0.782147,0.780583,0.770777,0.769646,0.764437,0.762654,0.759977,0.751598,0.748689,0.743151,0.737523,0.732193,0.728332,0.723941,0.720412,0.717055,0.714086,0.709612,0.702630,0.700180,0.693767,0.700200,0.692289,0.690516,0.687336,0.683038,0.678621,0.679151,0.680338,0.675339,0.673343,0.674338,0.668048,0.663329,0.661552,0.665535,0.661235,0.663298,0.660937,0.657161,0.658195,0.659496,0.655234,0.659274,0.654420,0.657123,0.652107,0.657301,0.653546,0.654851,0.650048,0.652684,0.651626,0.648825,0.648372,0.646072,0.649068,0.647184,0.648611,0.649060,0.646545,0.641233,0.642906,0.637460,0.638463,0.636343,0.633877,0.632428,0.628340,0.626644,0.617967,0.618737,0.620951,0.614498,0.606936,0.612065,0.610996,0.604037,0.604129,0.601267,0.596026,0.600888,0.588046,0.588591,0.581456,0.581472,0.579709,0.574100,0.571628,0.574753,0.566709,0.562515,0.565440,0.558678,0.559311,0.554281,0.552220,0.545357,0.547139,0.545066,0.539608,0.540325,0.535952
0.502044,0.505284,0.499927,0.502381,0.495933,0.502586,0.502523,0.505858,0.505885,0.499347,0.501971,0.502483,0.501742,0.507078,0.501632,0.505275,0.505598,0.507141,0.505130,0.504589,0.506451,0.502147,0.507543,0.503882,0.506390,0.511400,0.510574,0.509890,0.510021,0.505629,0.503637,0.510722,0.511620,0.508411,0.510549,0.510020,0.508487,0.513522,0.518847,0.510235,0.514122,0.515400,0.510469,0.516009,0.519996,0.517181,0.514215,0.517939,0.517051,0.520491,0.519417,0.519677,0.523342,0.520471,0.520314,0.525117,0.527810,0.523968,0.526379,0.528831,0.531418,0.532784,0.529419,0.532640,0.535474,0.537976,0.537080,0.543099,0.539203,0.542508,0.541550,0.545353,0.542203,0.541238,0.547017,0.547637,0.554469,0.552875,0.560198,0.552092,0.550804,0.556909,0.561370,0.562587,0.561862,0.563365,0.565096,0.564082,0.572297,0.572156,0.576070,0.575476,0.577300,0.577074,0.581124,0.585363,0.588750,0.589700,0.593804,0.596459,0.597602,0.602791,0.607149,0.612556,0.611257,0.615682,0.619713,0.626472,0.625103,0.632791,0.639672,0.643027,0.651600,0.654872,0.657561,0.663296,0.666802,0.679328,0.681299,0.682437,0.691106,0.698863,0.704886,0.715589,0.717781,0.730089,0.733554,0.736783,0.749607,0.753994,0.762267,0.767092,0.777150,0.780858,0.794030,0.797449,0.807632,0.819536,0.815084,0.827318,0.833852,0.840605,0.848003,0.852392,0.859313,0.862996,0.872211,0.869524,0.875235,0.884337,0.883754,0.890321,0.888921,0.893947,0.898438,0.895344,0.897042,0.896694,0.898239,0.897266,0.890871,0.893463,0.889884,0.884697,0.884496,0.877182,0.873304,0.863185,0.861000,0.857653,0.843973,0.837284,0.826910,0.828123,0.815773,0.810447,0.803102,0.794587,0.782313,0.769633,0.768371,0.754842,0.743837,0.735501,0.723206,0.712675,0.708952,0.694566,0.688632,0.679105,0.667997,0.663331,0.651560,0.642559,0.638048,0.621986,0.621394,0.610880,0.600270,0.592601
0.521316,0.521751,0.529371,0.532689,0.529998,0.529015,0.533833,0.534763,0.538152,0.541421,0.543556,0.543003,0.542278,0.546569,0.548419,0.553453,0.558804,0.559243,0.565944,0.565859,0.572287,0.575423,0.582461,0.585226,0.588782,0.593082,0.598300,0.599985,0.603613,0.607579,0.612037,0.617629,0.626068,0.631646,0.639194,0.640782,0.647551,0.653938,0.656670,0.664463,0.672874,0.678409,0.687883,0.693375,0.697082,0.709584,0.712977,0.721614,0.727981,0.734201,0.742686,0.752596,0.758037,0.767544,0.776978,0.780316,0.786246,0.800574,0.801935,0.810913,0.817981,0.823766,0.827076,0.838494,0.842351,0.851804,0.856954,0.858278,0.860746,0.867323,0.870911,0.875287,0.882015,0.884574,0.886687,0.883653,0.886148,0.886126,0.891347,0.886444,0.884148,0.885212,0.885021,0.878894,0.881759,0.875202,0.873131,0.870368,0.861575,0.858379,0.854450,0.846391,0.839809,0.831774,0.828589,0.828736,0.815308,0.808333,0.797712,0.790823,0.784487,0.778046,0.761681,0.759209,0.747042,0.745653,0.738190,0.726990,0.720356,0.710396,0.703414,0.700703,0.684656,0.680895,0.673833,0.667768,0.665183,0.655671,0.652771,0.643783,0.638750,0.631078,0.624909,0.617311,0.615754,0.616615,0.606439,0.600750,0.599016,0.599956,0.589360,0.589200,0.589163,0.583421,0.580468,0.578683,0.575380,0.576063,0.570409,0.572511,0.571545,0.566328,0.568284,0.569404,0.562366,0.562333,0.564363,0.558771,0.559725,0.556989,0.555719,0.555241,0.554452,0.554658,0.551996,0.551472,0.551936,0.550906,0.547839,0.549029,0.556634,0.545406,0.546906,0.552214,0.549197,0.542146,0.546685,0.541952,0.545598,0.543696,0.542591,0.541901,0.537468,0.536494,0.535216,0.534744,0.532499,0.533348,0.533890,0.526261,0.531011,0.526413,0.523535,0.525794,0.523139,0.524532,0.526227,0.519645,0.524629,0.518008,0.522914,0.518165,0.517720,0.515604,0.513583,0.518623,0.514213,0.514236,0.512443,0.514183
0.550242,0.551398,0.555548,0.558612,0.562628,0.562644,0.564698,0.569719,0.573822,0.579535,0.583190,0.584750,0.595284,0.595623,0.599581,0.604657,0.609582,0.612596,0.613785,0.619485,0.625325,0.622201,0.635452,0.634284,0.640876,0.644615,0.649670,0.649280,0.653094,0.662479,0.657949,0.659830,0.665480,0.668355,0.666529,0.672150,0.666579,0.676518,0.678175,0.677042,0.680231,0.681560,0.680840,0.682086,0.681835,0.680860,0.680990,0.677629,0.682553,0.677020,0.672201,0.671073,0.676767,0.670956,0.671703,0.666061,0.658918,0.666984,0.659077,0.658767,0.655045,0.649489,0.646684,0.649758,0.644504,0.642002,0.645189,0.636610,0.636456,0.633107,0.635171,0.625116,0.627960,0.621418,0.623649,0.618366,0.615672,0.620035,0.610671,0.613065,0.605824,0.612584,0.611166,0.602202,0.603385,0.604829,0.603456,0.602056,0.599933,0.602995,0.600583,0.605968,0.606901,0.599445,0.601498,0.599178,0.603335,0.605869,0.606208,0.606390,0.608254,0.608035,0.605035,0.609714,0.608329,0.615471,0.615848,0.618873,0.617613,0.623107,0.619206,0.625379,0.620921,0.631673,0.628043,0.635572,0.632234,0.645858,0.644558,0.646614,0.647483,0.650408,0.657062,0.659724,0.659265,0.667139,0.668617,0.673869,0.676528,0.684637,0.684233,0.687919,0.688103,0.697043,0.696590,0.700000,0.702547,0.713594,0.712033,0.716721,0.718123,0.724017,0.721876,0.728466,0.730414,0.732646,0.739951,0.734068,0.741244,0.744975,0.742991,0.746366,0.747680,0.743261,0.744925,0.743849,0.746573,0.748342,0.744651,0.747049,0.744710,0.742381,0.738210,0.732097,0.729574,0.730120,0.723233,0.727393,0.722176,0.710916,0.712126,0.711203,0.705945,0.699198,0.696484,0.686614,0.685396,0.677548,0.671226,0.670997,0.662766,0.658466,0.654895,0.648099,0.642165,0.636031,0.633203,0.624908,0.622069,0.615552,0.607893,0.603793,0.599094,0.593643,0.587757,0.583297,0.580204,0.575607,0.569916,0.567704
0.534871,0.538337,0.538844,0.545989,0.547384,0.548186,0.549304,0.552995,0.554919,0.562824,0.564876,0.569508,0.569934,0.574477,0.573004,0.582789,0.584145,0.589287,0.595453,0.593103,0.600240,0.600929,0.606926,0.610173,0.612807,0.618051,0.619709,0.621039,0.630163,0.635335,0.637514,0.638055,0.644786,0.647550,0.648642,0.652188,0.654771,0.656139,0.660572,0.665436,0.665622,0.669377,0.669023,0.671890,0.678317,0.679910,0.678285,0.682825,0.688294,0.686093,0.687643,0.689135,0.689156,0.692561,0.694506,0.686410,0.692146,0.699777,0.692433,0.698017,0.696925,0.699024,0.702766,0.705938,0.706777,0.699317,0.706419,0.711008,0.709532,0.707400,0.712932,0.709114,0.709095,0.708268,0.707881,0.708678,0.716437,0.712218,0.707599,0.711975,0.705409,0.706570,0.704785,0.715797,0.710594,0.708785,0.712852,0.714015,0.712872,0.709936,0.709250,0.707274,0.708627,0.708094,0.711003,0.706936,0.707453,0.705267,0.709243,0.703036,0.705216,0.701737,0.705989,0.700104,0.701588,0.700694,0.703922,0.701746,0.703064,0.702017,0.696863,0.696298,0.697213,0.696573,0.698924,0.696169,0.698350,0.691139,0.696168,0.690201,0.694456,0.693078,0.689901,0.691943,0.694774,0.690778,0.689270,0.691150,0.682174,0.684840,0.689780,0.684014,0.687126,0.678729,0.683424,0.679185,0.682080,0.682683,0.673019,0.675929,0.681528,0.676045,0.672307,0.678080,0.672491,0.666834,0.664145,0.669725,0.663973,0.663230,0.663410,0.662445,0.657092,0.656997,0.656595,0.660020,0.653205,0.653372,0.647802,0.648177,0.645498,0.643085,0.639244,0.639416,0.635295,0.631871,0.630103,0.625466,0.620506,0.623929,0.614077,0.612309,0.605836,0.603297,0.611540,0.601863,0.598586,0.590733,0.587425,0.590838,0.579886,0.577383,0.575952,0.573331,0.572278,0.563423,0.570607,0.564202,0.562133,0.558548,0.556975,0.552190,0.550068,0.546074,0.546135,0.538047,0.535783,0.538840,0.530768,0.533052
0.586949,0.595921,0.597606,0.610028,0.612148,0.617461,0.623135,0.631817,0.641565,0.652251,0.656561,0.664104,0.672774,0.678706,0.683854,0.696504,0.701889,0.713829,0.719966,0.723196,0.731510,0.745150,0.749652,0.755837,0.764682,0.768344,0.774733,0.783434,0.787044,0.795399,0.796560,0.804544,0.804600,0.802809,0.813871,0.819095,0.822798,0.828131,0.827165,0.826619,0.825196,0.830381,0.825981,0.827928,0.824756,0.824943,0.823353,0.816354,0.812483,0.810536,0.810193,0.804620,0.799961,0.793556,0.788095,0.788012,0.783616,0.772217,0.768533,0.761143,0.759269,0.747908,0.739045,0.737842,0.732641,0.721025,0.716999,0.710768,0.704813,0.695651,0.694106,0.685847,0.683905,0.679149,0.670387,0.664099,0.660474,0.655893,0.656330,0.649513,0.649740,0.639990,0.639127,0.635166,0.636110,0.631791,0.626480,0.631579,0.625344,0.628561,0.620437,0.624096,0.625869,0.623959,0.624687,0.625620,0.628001,0.626596,0.625302,0.621412,0.622826,0.632426,0.629340,0.631772,0.630951,0.628929,0.629929,0.633745,0.634917,0.627590,0.633831,0.638512,0.643194,0.633164,0.639826,0.640274,0.640362,0.641857,0.643739,0.642216,0.636890,0.639887,0.635648,0.636280,0.640648,0.636576,0.635038,0.638961,0.634049,0.631415,0.630028,0.627570,0.632475,0.625713,0.629268,0.621657,0.625222,0.617898,0.614254,0.614720,0.612454,0.610757,0.610307,0.601970,0.603110,0.595708,0.597697,0.596249,0.588203,0.592648,0.589279,0.589047,0.584837,0.584346,0.580864,0.575325,0.573947,0.566740,0.568736,0.561489,0.563316,0.562604,0.557197,0.559859,0.560366,0.550799,0.551594,0.545024,0.551872,0.548776,0.544771,0.544961,0.538176,0.544729,0.538134,0.533042,0.540456,0.530592,0.532082,0.531514,0.533313,0.527228,0.520553,0.524577,0.522748,0.519490,0.526670,0.517199,0.519361,0.516094,0.512706,0.518798,0.512958,0.516654,0.508568,0.512960,0.512926,0.515399,0.505403,0.510944
0.547901,0.556403,0.551742,0.556380,0.566058,0.564168,0.570194,0.578786,0.576957,0.580583,0.588700,0.590705,0.598206,0.602002,0.605999,0.612913,0.614237,0.622003,0.623468,0.628650,0.633757,0.639325,0.644292,0.651659,0.655655,0.660025,0.660611,0.665596,0.673634,0.678664,0.679495,0.680984,0.685188,0.689559,0.690740,0.696161,0.699414,0.705236,0.701040,0.703087,0.708749,0.707865,0.712940,0.712277,0.720896,0.710708,0.711201,0.716559,0.716419,0.712207,0.716384,0.717913,0.717478,0.715140,0.714457,0.717898,0.715454,0.715193,0.714271,0.712715,0.716863,0.715212,0.713678,0.713310,0.704186,0.709332,0.708024,0.712378,0.708856,0.704986,0.704707,0.702752,0.709199,0.703645,0.699557,0.700153,0.703141,0.701522,0.706902,0.706922,0.707228,0.704297,0.699295,0.702417,0.704778,0.705756,0.706392,0.706441,0.709098,0.708584,0.711806,0.709633,0.712782,0.715933,0.711550,0.715482,0.712570,0.716899,0.712201,0.721362,0.715082,0.720611,0.720808,0.721031,0.722509,0.723281,0.723364,0.724682,0.724734,0.726629,0.722699,0.722534,0.727850,0.730737,0.726873,0.726174,0.725158,0.718140,0.719801,0.719136,0.721399,0.718365,0.716653,0.712087,0.713252,0.707977,0.705703,0.705342,0.700923,0.696632,0.695733,0.692770,0.688736,0.685220,0.682171,0.679484,0.678159,0.674076,0.674083,0.665620,0.661325,0.654085,0.651505,0.646571,0.646048,0.641294,0.637315,0.634480,0.630345,0.621733,0.624903,0.620582,0.616118,0.612529,0.606370,0.605865,0.599750,0.594376,0.591305,0.584838,0.585252,0.584751,0.578353,0.579001,0.574982,0.567653,0.567191,0.562945,0.563924,0.559169,0.555526,0.552996,0.552713,0.546351,0.550827,0.543704,0.543825,0.541883,0.538121,0.536490,0.539083,0.536517,0.531364,0.533086,0.530017,0.529707,0.530153,0.519270,0.525729,0.519403,0.520294,0.519166,0.515397,0.519960,0.519583,0.510802,0.510468,0.512997,0.510693,0.511852
0.541123,0.546715,0.548549,0.549352,0.551856,0.555704,0.557075,0.558605,0.566648,0.568096,0.575160,0.572581,0.578771,0.580320,0.585058,0.588646,0.591716,0.591927,0.601303,0.598718,0.599991,0.608981,0.612911,0.614753,0.622997,0.625034,0.627293,0.629342,0.630927,0.638982,0.638258,0.644294,0.642528,0.649966,0.646356,0.651956,0.646831,0.652560,0.655480,0.654027,0.649420,0.658210,0.655195,0.659207,0.657029,0.657708,0.653713,0.658727,0.655767,0.656061,0.657733,0.654846,0.656596,0.648533,0.652403,0.648870,0.651339,0.647291,0.645038,0.644432,0.642288,0.641189,0.636496,0.638818,0.637290,0.629431,0.635355,0.630755,0.636541,0.630158,0.632073,0.628919,0.630648,0.634828,0.631669,0.634963,0.630986,0.636492,0.635352,0.636203,0.636270,0.636484,0.642644,0.645703,0.646405,0.647463,0.651968,0.654299,0.658557,0.659989,0.667676,0.670055,0.670309,0.678474,0.681048,0.686364,0.690460,0.694001,0.698569,0.701972,0.707822,0.713693,0.714228,0.721061,0.724374,0.724390,0.736086,0.736634,0.736598,0.744471,0.745201,0.751332,0.751702,0.750075,0.759446,0.759837,0.763398,0.763741,0.768241,0.762276,0.770223,0.767695,0.769674,0.769055,0.767411,0.770917,0.768348,0.767230,0.761131,0.765493,0.764881,0.757103,0.755083,0.755490,0.753724,0.749042,0.744197,0.741478,0.742770,0.740319,0.736924,0.734723,0.728114,0.723834,0.717044,0.717464,0.717777,0.713525,0.704577,0.701400,0.697488,0.693380,0.690420,0.684406,0.678900,0.680053,0.676548,0.675465,0.667892,0.661168,0.653300,0.654494,0.648853,0.647030,0.636966,0.631423,0.631416,0.627653,0.620901,0.623394,0.616372,0.614586,0.612033,0.601113,0.597995,0.598518,0.591790,0.592090,0.590386,0.583322,0.581292,0.577493,0.570123,0.571499,0.568119,0.566592,0.561190,0.559098,0.556119,0.556150,0.549828,0.545930,0.545092,0.544536,0.534491,0.536997,0.534031,0.532305,0.533949,0.527592
0.565631,0.570369,0.575575,0.575578,0.578111,0.586080,0.591240,0.596841,0.599366,0.605347,0.609737,0.618950,0.621744,0.624612,0.634473,0.640321,0.639914,0.652317,0.655587,0.661108,0.666188,0.668754,0.677882,0.682245,0.687004,0.693213,0.690299,0.696614,0.704231,0.708941,0.712369,0.718143,0.715440,0.721080,0.725129,0.727172,0.728018,0.729704,0.727468,0.731514,0.724840,0.727898,0.727618,0.733175,0.727140,0.725225,0.721520,0.720631,0.722580,0.713338,0.714694,0.717348,0.707199,0.705899,0.699236,0.698027,0.695944,0.697144,0.690138,0.686046,0.683381,0.676307,0.671725,0.667542,0.662785,0.660064,0.658466,0.655977,0.649652,0.644855,0.645486,0.645153,0.638180,0.635976,0.640556,0.631977,0.632017,0.631435,0.634408,0.630408,0.630592,0.633134,0.623230,0.630343,0.632081,0.636118,0.634696,0.634007,0.636457,0.641376,0.638495,0.645226,0.654589,0.655125,0.654458,0.660094,0.662781,0.665232,0.670948,0.671316,0.678698,0.680352,0.688474,0.694284,0.691276,0.697067,0.701961,0.705827,0.709706,0.710785,0.718327,0.719266,0.722138,0.722092,0.725348,0.723821,0.729875,0.726561,0.734693,0.730743,0.732133,0.727847,0.732458,0.731119,0.731603,0.732268,0.729914,0.731266,0.726197,0.722718,0.722900,0.721577,0.716248,0.715884,0.713040,0.708536,0.700627,0.697101,0.693594,0.694272,0.687047,0.686644,0.680287,0.675364,0.673267,0.666231,0.663454,0.658842,0.653331,0.650657,0.644907,0.636543,0.632444,0.633484,0.626776,0.622840,0.619307,0.616417,0.614523,0.607844,0.601968,0.600930,0.596789,0.596871,0.591111,0.586576,0.578732,0.578804,0.571446,0.568924,0.565899,0.567854,0.564285,0.557040,0.559179,0.559326,0.550515,0.548211,0.547212,0.544880,0.543983,0.542800,0.537897,0.541001,0.539526,0.531072,0.534423,0.531575,0.523747,0.526647,0.525097,0.516490,0.518545,0.518374,0.516680,0.513870,0.515701,0.513863,0.515269,0.508549
0.524902,0.529066,0.531339,0.537554,0.534826,0.538269,0.540708,0.538192,0.542526,0.548150,0.547742,0.550163,0.550680,0.551009,0.558721,0.555862,0.556429,0.564875,0.562205,0.565870,0.574361,0.576041,0.577128,0.576351,0.581725,0.584710,0.589963,0.588908,0.593438,0.595721,0.595829,0.604581,0.600925,0.604943,0.606677,0.611329,0.615026,0.612909,0.614622,0.621722,0.620554,0.624494,0.627372,0.631262,0.630713,0.631226,0.634692,0.635392,0.636709,0.636743,0.641530,0.640379,0.644408,0.645839,0.641936,0.643544,0.648172,0.650734,0.652141,0.654574,0.649718,0.653734,0.655858,0.654394,0.657206,0.656143,0.658382,0.659949,0.658149,0.663573,0.665310,0.666927,0.666997,0.666221,0.665075,0.670496,0.667734,0.669598,0.667714,0.673168,0.677616,0.674236,0.677820,0.675823,0.680423,0.677515,0.678671,0.685221,0.676898,0.676975,0.683661,0.684709,0.681780,0.685697,0.686877,0.688558,0.687680,0.693822,0.693917,0.692874,0.695504,0.694380,0.700272,0.698425,0.695446,0.699893,0.700952,0.705664,0.697300,0.701300,0.701448,0.703425,0.707038,0.708796,0.704659,0.705026,0.709522,0.706613,0.705376,0.708521,0.712114,0.715319,0.710353,0.715483,0.707601,0.715775,0.713498,0.716815,0.717685,0.713653,0.717001,0.718007,0.718033,0.715957,0.718308,0.713325,0.718611,0.719239,0.719971,0.719220,0.715212,0.717760,0.716572,0.718061,0.713294,0.715239,0.712241,0.714307,0.712381,0.713318,0.709519,0.707346,0.705431,0.704944,0.705597,0.701181,0.697716,0.700371,0.695541,0.694782,0.690866,0.686721,0.681760,0.678170,0.680041,0.673753,0.672574,0.668872,0.664404,0.658647,0.654491,0.648823,0.647366,0.644171,0.642766,0.635150,0.627412,0.629080,0.617310,0.614962,0.610209,0.605663,0.599425,0.597183,0.596471,0.591651,0.581435,0.581074,0.576276,0.574286,0.568571,0.562171,0.564280,0.556960,0.548552,0.550011,0.543911,0.544028,0.543452,0.541538
0.524725,0.526314,0.528941,0.533530,0.532886,0.540843,0.537708,0.547037,0.543858,0.548703,0.552523,0.552456,0.554203,0.555724,0.557671,0.562586,0.565433,0.573300,0.569934,0.574469,0.576711,0.579037,0.584564,0.584453,0.587592,0.586422,0.589740,0.593546,0.595211,0.599884,0.598592,0.601255,0.604502,0.606496,0.612147,0.611660,0.613711,0.609253,0.616094,0.618555,0.617243,0.617123,0.619075,0.620940,0.616786,0.618414,0.615899,0.623972,0.620065,0.626741,0.625389,0.619556,0.620600,0.621872,0.625061,0.618705,0.622429,0.622836,0.620869,0.623342,0.623379,0.622186,0.620058,0.622028,0.626316,0.622477,0.621096,0.622204,0.627850,0.624938,0.625740,0.625969,0.628107,0.630517,0.630594,0.632098,0.635702,0.638137,0.641182,0.644488,0.646899,0.649636,0.658002,0.653041,0.661222,0.666716,0.669171,0.668329,0.677780,0.681326,0.686038,0.684946,0.692977,0.698292,0.702601,0.707938,0.713487,0.719376,0.723233,0.728583,0.731087,0.737566,0.741853,0.749555,0.749888,0.761269,0.761200,0.769133,0.768580,0.771669,0.776819,0.776448,0.780192,0.785324,0.783544,0.786556,0.792594,0.793105,0.796885,0.795452,0.795251,0.796655,0.800701,0.798338,0.799605,0.796734,0.791436,0.793177,0.795839,0.796288,0.786746,0.786001,0.781100,0.782047,0.777875,0.774099,0.772222,0.769215,0.766026,0.763571,0.758900,0.752493,0.751562,0.743634,0.738775,0.739218,0.733539,0.726611,0.723097,0.718343,0.715225,0.712703,0.706655,0.702758,0.694176,0.698766,0.685008,0.686228,0.676745,0.673777,0.667663,0.668975,0.660327,0.662142,0.651766,0.650046,0.643003,0.637493,0.640120,0.631515,0.625754,0.624744,0.619458,0.615527,0.609726,0.603403,0.600275,0.598752,0.593543,0.588433,0.589324,0.585057,0.576382,0.574837,0.570231,0.571401,0.565868,0.559571,0.557541,0.558757,0.551855,0.549532,0.547954,0.547001,0.546629,0.544650,0.537448,0.538498,0.533748,0.533123
0.520890,0.522765,0.524457,0.524044,0.529189,0.527235,0.537256,0.531283,0.536377,0.538889,0.545641,0.541419,0.546840,0.548191,0.552428,0.552678,0.557852,0.556118,0.566656,0.565840,0.572306,0.570946,0.570519,0.576688,0.579032,0.587823,0.583321,0.589126,0.594225,0.595719,0.601395,0.604636,0.608955,0.604961,0.615881,0.613645,0.626117,0.626922,0.631354,0.634841,0.635271,0.640523,0.643663,0.650891,0.655283,0.656113,0.659848,0.663275,0.670889,0.675022,0.677346,0.681161,0.687169,0.692820,0.693208,0.699401,0.706282,0.708061,0.709719,0.710030,0.717585,0.726995,0.726090,0.728156,0.736853,0.732983,0.742833,0.745073,0.743211,0.748323,0.749109,0.750261,0.755233,0.761284,0.763230,0.763159,0.762650,0.759950,0.762797,0.769158,0.767471,0.767608,0.764393,0.769749,0.765118,0.763942,0.766279,0.763335,0.763487,0.761865,0.761801,0.756780,0.754837,0.757466,0.750727,0.751127,0.747446,0.744076,0.741597,0.742272,0.738448,0.733005,0.734977,0.726546,0.732396,0.727107,0.722148,0.713452,0.714788,0.713634,0.711693,0.707754,0.708240,0.702487,0.704127,0.704436,0.697644,0.694203,0.697793,0.693517,0.692776,0.689978,0.689006,0.689929,0.682882,0.684519,0.681003,0.683656,0.682440,0.678766,0.676621,0.675735,0.678527,0.672695,0.675419,0.672708,0.671347,0.676586,0.676378,0.673391,0.673753,0.670352,0.670690,0.667790,0.670938,0.671230,0.666208,0.665602,0.663725,0.667431,0.663713,0.664118,0.663973,0.662525,0.662427,0.662058,0.658266,0.658419,0.651961,0.653798,0.649027,0.649217,0.644060,0.646990,0.641418,0.644343,0.641098,0.635686,0.632932,0.632443,0.627990,0.620718,0.619226,0.620397,0.613634,0.615491,0.609088,0.606844,0.607585,0.596197,0.598918,0.597009,0.589909,0.586488,0.582674,0.580955,0.576424,0.572784,0.572570,0.569295,0.563407,0.563492,0.559504,0.553873,0.555366,0.550267,0.551387,0.547384,0.546441,0.539499
0.570565,0.572657,0.577246,0.580228,0.587825,0.592347,0.592678,0.602729,0.607483,0.614538,0.619015,0.624862,0.633319,0.635682,0.645283,0.648686,0.655885,0.659156,0.665050,0.673061,0.680260,0.687651,0.696097,0.695535,0.700969,0.706292,0.714181,0.720260,0.726071,0.733502,0.741291,0.739613,0.742433,0.747702,0.754434,0.760137,0.759232,0.762821,0.769059,0.771643,0.770856,0.772331,0.772624,0.775966,0.775468,0.775481,0.775014,0.777508,0.778044,0.774042,0.774659,0.773685,0.772823,0.771380,0.765990,0.769403,0.762431,0.770018,0.756067,0.753740,0.755585,0.749817,0.753663,0.748097,0.743043,0.736373,0.734286,0.731424,0.728794,0.724650,0.717079,0.711795,0.714471,0.709812,0.705666,0.701110,0.694133,0.692744,0.686263,0.686129,0.678260,0.671653,0.672092,0.661843,0.663937,0.654749,0.654818,0.651171,0.648591,0.646736,0.635373,0.631552,0.631505,0.626437,0.621024,0.616291,0.616501,0.616710,0.613103,0.605577,0.601019,0.601323,0.595021,0.595312,0.591359,0.590847,0.588073,0.583729,0.581019,0.580661,0.581708,0.582693,0.577381,0.575292,0.582039,0.576452,0.575712,0.579232,0.578562,0.570479,0.575028,0.575874,0.577124,0.580920,0.579622,0.585055,0.585026,0.583562,0.587288,0.585458,0.592516,0.594377,0.589255,0.599221,0.599261,0.603195,0.609739,0.605167,0.615299,0.616271,0.619383,0.618725,0.621508,0.623764,0.627928,0.629150,0.632405,0.636657,0.638943,0.644929,0.637683,0.641633,0.646109,0.648471,0.643802,0.649350,0.649123,0.651911,0.649830,0.647504,0.651527,0.647342,0.649518,0.648028,0.645922,0.650816,0.642922,0.643571,0.642096,0.640542,0.637950,0.636363,0.629632,0.629669,0.621176,0.621775,0.618860,0.613322,0.614790,0.610320,0.608752,0.603207,0.601932,0.596089,0.592490,0.587037,0.586046,0.584383,0.580199,0.573693,0.569952,0.563901,0.563810,0.562719,0.557187,0.552981,0.553722,0.545243,0.544686,0.546457
0.549387,0.553760,0.559333,0.563271,0.567353,0.571153,0.574967,0.581830,0.590356,0.589261,0.594522,0.602265,0.606339,0.608124,0.614075,0.617581,0.616868,0.626233,0.631718,0.638682,0.643641,0.648359,0.653143,0.658183,0.660599,0.663394,0.672119,0.670839,0.681264,0.686379,0.686149,0.690016,0.699352,0.701601,0.706294,0.707050,0.710275,0.715690,0.711640,0.719815,0.720156,0.723802,0.726878,0.726349,0.732485,0.731059,0.733365,0.730534,0.737490,0.733255,0.736258,0.731890,0.737889,0.737983,0.737605,0.740198,0.736939,0.736416,0.733786,0.741150,0.733024,0.733130,0.734485,0.735297,0.733774,0.734567,0.734514,0.735457,0.731459,0.736630,0.728078,0.727619,0.726460,0.725251,0.728514,0.727736,0.725839,0.722635,0.726355,0.727518,0.728676,0.727052,0.725436,0.726776,0.728667,0.722360,0.725657,0.727597,0.731643,0.725545,0.726571,0.726319,0.725840,0.729030,0.732873,0.733618,0.730102,0.729734,0.732054,0.732425,0.730506,0.732388,0.727335,0.732601,0.731083,0.732055,0.731444,0.731416,0.731360,0.728793,0.730104,0.726617,0.725598,0.726666,0.724201,0.727573,0.723647,0.720782,0.722406,0.715652,0.716809,0.711837,0.712328,0.705701,0.702919,0.699432,0.696030,0.694435,0.690418,0.684273,0.676751,0.682242,0.668831,0.666273,0.666391,0.660133,0.652343,0.646417,0.641529,0.636960,0.629031,0.629063,0.626110,0.617983,0.616428,0.611927,0.604481,0.597917,0.592251,0.589572,0.585909,0.579364,0.578213,0.577520,0.571627,0.563778,0.566508,0.559966,0.555007,0.552571,0.550554,0.547718,0.539741,0.541355,0.535259,0.534651,0.532871,0.528451,0.522511,0.525838,0.521246,0.521313,0.511532,0.519855,0.516392,0.512038,0.508542,0.509349,0.509219,0.507532,0.503951,0.509114,0.507009,0.505823,0.505031,0.500217,0.506343,0.505178,0.500790,0.499551,0.496761,0.500743,0.503327,0.497396,0.498275,0.497465,0.499264,0.494025,0.497984,0.497559
0.532419,0.533357,0.532909,0.537453,0.538557,0.541259,0.542270,0.547575,0.546556,0.548165,0.551508,0.558125,0.558328,0.563280,0.562383,0.564700,0.567871,0.573888,0.574044,0.582092,0.579355,0.585607,0.586075,0.588977,0.592924,0.595088,0.600617,0.600902,0.603250,0.606969,0.607340,0.614047,0.617841,0.620403,0.619656,0.620919,0.627489,0.629184,0.628261,0.636100,0.634388,0.638248,0.634707,0.635426,0.641955,0.641504,0.648293,0.644730,0.646303,0.651678,0.650221,0.650454,0.653041,0.652981,0.652799,0.657609,0.658732,0.662648,0.659689,0.656148,0.661837,0.663327,0.664423,0.668383,0.669846,0.670692,0.670815,0.670068,0.673501,0.672531,0.682660,0.682665,0.676450,0.682950,0.681870,0.690409,0.693499,0.691338,0.694726,0.700414,0.704179,0.707054,0.710094,0.710673,0.715460,0.716591,0.727713,0.726263,0.730225,0.729434,0.738444,0.743265,0.746536,0.750825,0.750750,0.759086,0.760848,0.764472,0.767437,0.770215,0.775774,0.781926,0.788416,0.789531,0.792674,0.792992,0.796953,0.796483,0.802050,0.801735,0.808038,0.810113,0.807960,0.805444,0.808233,0.807379,0.811176,0.811920,0.806675,0.802185,0.800581,0.802336,0.802858,0.794012,0.793976,0.792491,0.784545,0.783019,0.778431,0.774988,0.771649,0.760174,0.762408,0.754812,0.747116,0.741419,0.740783,0.728382,0.727973,0.718796,0.710439,0.702639,0.702801,0.687021,0.688878,0.681231,0.675253,0.665623,0.658612,0.650790,0.645700,0.639044,0.632869,0.629064,0.623731,0.616551,0.602185,0.605196,0.597193,0.594498,0.590708,0.583201,0.578425,0.573322,0.569037,0.568796,0.562113,0.560124,0.555776,0.553343,0.545238,0.547243,0.543253,0.545001,0.536268,0.531436,0.529728,0.530139,0.526960,0.528947,0.523803,0.522691,0.517732,0.517129,0.512554,0.513298,0.517145,0.512668,0.513566,0.513981,0.506013,0.507647,0.503755,0.509101,0.504172,0.506731,0.501356,0.506378,0.500036,0.506688
0.526860,0.521958,0.525654,0.523354,0.531554,0.530259,0.533482,0.532253,0.533047,0.536262,0.535238,0.538865,0.547270,0.547108,0.547530,0.549087,0.551055,0.556922,0.555540,0.558250,0.558250,0.562213,0.566537,0.562478,0.567644,0.574403,0.572241,0.575032,0.576530,0.577489,0.579448,0.583344,0.584049,0.589919,0.582566,0.579774,0.588118,0.590353,0.591345,0.594420,0.595683,0.595453,0.597224,0.594107,0.599306,0.595519,0.595036,0.602983,0.602585,0.598021,0.602655,0.602114,0.602639,0.599464,0.605409,0.602069,0.602537,0.599553,0.603233,0.606083,0.604863,0.607021,0.608142,0.612474,0.612275,0.609359,0.613270,0.615651,0.616234,0.619876,0.620779,0.619054,0.623581,0.627009,0.628704,0.630092,0.628055,0.632093,0.638688,0.638746,0.648199,0.647799,0.649668,0.656530,0.658819,0.666078,0.669032,0.675570,0.677304,0.682731,0.690522,0.693600,0.697134,0.706581,0.709760,0.713569,0.718991,0.726061,0.734043,0.734067,0.736912,0.742753,0.752438,0.762262,0.761237,0.768851,0.770501,0.772469,0.778392,0.783700,0.786855,0.790736,0.793461,0.793883,0.793204,0.805766,0.805581,0.803088,0.801567,0.803949,0.807363,0.809169,0.807627,0.811113,0.808954,0.807557,0.805514,0.803747,0.803289,0.803394,0.802852,0.793059,0.792534,0.792366,0.790391,0.782610,0.783154,0.778627,0.776151,0.769383,0.764276,0.764153,0.757863,0.751316,0.751022,0.740965,0.736478,0.737584,0.727319,0.729257,0.715980,0.712255,0.706365,0.705333,0.694981,0.691617,0.693677,0.683020,0.683549,0.677660,0.665204,0.665641,0.658344,0.654751,0.654395,0.646299,0.636864,0.634018,0.631802,0.624621,0.626486,0.618513,0.613926,0.611504,0.605246,0.600223,0.598772,0.593005,0.585956,0.586711,0.581132,0.578579,0.576665,0.570208,0.571958,0.566922,0.562526,0.560751,0.557774,0.547866,0.547836,0.543277,0.540668,0.542354,0.537671,0.532527,0.533248,0.529670,0.525305,0.523591
0.503700,0.497677,0.501690,0.500608,0.505138,0.499959,0.502804,0.506926,0.505608,0.501575,0.506623,0.509223,0.508611,0.505996,0.510551,0.509752,0.510484,0.509141,0.511527,0.511997,0.512955,0.520949,0.514704,0.523819,0.519142,0.519321,0.522408,0.528198,0.527574,0.529492,0.535114,0.537212,0.541489,0.548014,0.546443,0.547695,0.546614,0.553329,0.561835,0.558624,0.571438,0.569734,0.572524,0.576837,0.584072,0.587372,0.594134,0.599065,0.609206,0.610821,0.618979,0.624931,0.630101,0.636786,0.638539,0.648469,0.655144,0.659456,0.664441,0.669264,0.679742,0.689782,0.694024,0.698627,0.705992,0.712986,0.716342,0.721893,0.726907,0.740266,0.741056,0.750152,0.754860,0.755283,0.763560,0.768600,0.772492,0.775667,0.777503,0.782187,0.788586,0.791427,0.794539,0.794299,0.797141,0.797021,0.801898,0.809405,0.813192,0.812836,0.810679,0.812622,0.815940,0.814716,0.812590,0.815705,0.818809,0.813053,0.814890,0.817769,0.810200,0.813789,0.810914,0.810291,0.810782,0.806774,0.808291,0.805244,0.805951,0.799994,0.802742,0.798251,0.800127,0.801183,0.794191,0.790553,0.794417,0.785799,0.784253,0.786175,0.777851,0.777636,0.775985,0.772002,0.767582,0.765376,0.760649,0.756071,0.749634,0.744691,0.749955,0.741081,0.737205,0.729524,0.730228,0.729523,0.720375,0.712366,0.715599,0.710735,0.706023,0.703067,0.693773,0.690870,0.684679,0.678239,0.678352,0.672910,0.667763,0.666471,0.652609,0.654901,0.642945,0.647760,0.644092,0.634569,0.631197,0.629872,0.623944,0.622077,0.619298,0.615447,0.609127,0.607672,0.603557,0.600476,0.598012,0.595117,0.590008,0.590229,0.581355,0.584629,0.574930,0.576768,0.568931,0.566456,0.558928,0.563131,0.560064,0.559103,0.552670,0.552694,0.548181,0.547816,0.547134,0.537815,0.536367,0.537137,0.535175,0.531241,0.533219,0.528301,0.528098,0.521870,0.527191,0.525219,0.520288,0.525592,0.516542,0.516444
0.521257,0.520593,0.526466,0.527899,0.529590,0.525765,0.524926,0.533849,0.535140,0.535973,0.533177,0.539822,0.545225,0.545799,0.544741,0.545479,0.552057,0.555044,0.558061,0.557391,0.562150,0.562809,0.565682,0.565103,0.575767,0.570547,0.582645,0.577632,0.583600,0.582095,0.587659,0.594235,0.594839,0.600155,0.607448,0.606477,0.610853,0.615114,0.619931,0.621882,0.625682,0.628241,0.628378,0.633906,0.637710,0.644663,0.643462,0.651102,0.652351,0.655781,0.660295,0.663220,0.665624,0.672396,0.674074,0.677531,0.679523,0.685332,0.687355,0.692432,0.694365,0.699767,0.699244,0.700393,0.709008,0.702422,0.710871,0.711891,0.715534,0.716255,0.717669,0.719617,0.721800,0.715849,0.715659,0.717186,0.720018,0.719784,0.719681,0.720838,0.721042,0.720888,0.718208,0.715699,0.712379,0.713209,0.707688,0.703966,0.698723,0.699156,0.695468,0.690438,0.687397,0.689826,0.684286,0.681519,0.670790,0.668545,0.674185,0.662571,0.663571,0.662034,0.660759,0.654736,0.649159,0.644965,0.643560,0.635452,0.635663,0.633506,0.635843,0.628145,0.630710,0.628162,0.627715,0.624261,0.622058,0.625475,0.626849,0.628217,0.624818,0.621828,0.628750,0.633865,0.626364,0.628624,0.636572,0.628863,0.641198,0.643959,0.644610,0.649902,0.653720,0.652327,0.660716,0.667086,0.669313,0.670794,0.671444,0.676812,0.683070,0.679210,0.693382,0.696242,0.699064,0.703286,0.709060,0.711482,0.714041,0.716478,0.716353,0.720507,0.726216,0.722938,0.727522,0.729232,0.735025,0.728714,0.730729,0.728710,0.731513,0.726697,0.728434,0.727695,0.723659,0.722700,0.719711,0.718306,0.713440,0.711083,0.708454,0.702648,0.702768,0.692258,0.689624,0.687443,0.684998,0.674417,0.673213,0.663333,0.664212,0.652018,0.649242,0.647981,0.635494,0.636186,0.630733,0.622282,0.610871,0.611473,0.604289,0.595603,0.594925,0.590425,0.586343,0.578136,0.578789,0.569069,0.566914,0.555930
0.518006,0.522270,0.523226,0.526836,0.517102,0.518281,0.524644,0.526809,0.531790,0.528509,0.528185,0.529919,0.538725,0.532337,0.536687,0.540298,0.545200,0.546328,0.544504,0.550915,0.555587,0.550922,0.553394,0.554212,0.560654,0.563730,0.564714,0.568410,0.568377,0.572065,0.570375,0.571138,0.573069,0.577658,0.579625,0.577995,0.584404,0.583537,0.588373,0.590965,0.599585,0.597051,0.594387,0.595511,0.600055,0.596251,0.602533,0.607909,0.606025,0.609015,0.609263,0.613220,0.612027,0.614722,0.621270,0.622019,0.622163,0.616723,0.622328,0.625307,0.625025,0.627989,0.631981,0.631445,0.634439,0.636397,0.633580,0.637758,0.634196,0.636348,0.644816,0.643059,0.643081,0.640124,0.642255,0.641540,0.642904,0.646224,0.636332,0.640314,0.643630,0.642082,0.644238,0.644100,0.647988,0.645806,0.645623,0.640380,0.646026,0.644412,0.644392,0.644423,0.644342,0.648612,0.641113,0.638835,0.644292,0.641216,0.643218,0.639052,0.642998,0.638549,0.641768,0.642589,0.642099,0.639606,0.644320,0.645828,0.646261,0.641362,0.646806,0.644219,0.651604,0.648334,0.652125,0.653799,0.657419,0.658112,0.664966,0.664401,0.667329,0.670151,0.672203,0.680413,0.677909,0.689000,0.689168,0.697768,0.696780,0.699497,0.701910,0.711698,0.716554,0.718090,0.724812,0.729362,0.730467,0.738869,0.740290,0.748789,0.747542,0.751579,0.755794,0.759168,0.766040,0.774020,0.773045,0.781360,0.779766,0.784804,0.783244,0.784987,0.787930,0.789447,0.789841,0.796003,0.792041,0.787710,0.791178,0.798252,0.791344,0.786808,0.782029,0.781602,0.781381,0.778781,0.774441,0.770487,0.769494,0.756783,0.753962,0.754182,0.748600,0.743562,0.739378,0.727143,0.725125,0.713496,0.709754,0.701481,0.694860,0.696250,0.676747,0.670986,0.670885,0.661177,0.652188,0.648736,0.641937,0.635242,0.631726,0.625361,0.615928,0.610002,0.602336,0.599284,0.592020,0.585025,0.580578,0.578961
0.543126,0.545061,0.552115,0.553463,0.549181,0.560562,0.565833,0.567194,0.569188,0.576392,0.575356,0.584902,0.588802,0.594038,0.590528,0.597764,0.603378,0.606185,0.609264,0.614628,0.617737,0.625529,0.628357,0.632436,0.636148,0.636729,0.644950,0.644028,0.648584,0.653269,0.659613,0.663207,0.666985,0.671054,0.673742,0.672803,0.674636,0.681488,0.684469,0.686157,0.683124,0.690415,0.683446,0.689845,0.693491,0.699565,0.698455,0.696651,0.701707,0.698841,0.695306,0.698312,0.697809,0.702085,0.700052,0.694831,0.698103,0.699316,0.696326,0.695551,0.694165,0.693126,0.700259,0.696853,0.698429,0.693344,0.695252,0.696953,0.691293,0.693432,0.694550,0.694721,0.695601,0.690606,0.695227,0.688693,0.692334,0.689691,0.694827,0.691116,0.687305,0.687168,0.695920,0.693961,0.692759,0.692370,0.695178,0.693257,0.695307,0.698025,0.690040,0.698894,0.694862,0.697092,0.700637,0.703266,0.696294,0.700431,0.706699,0.701864,0.704407,0.710148,0.706954,0.704575,0.705768,0.705382,0.704246,0.706380,0.712197,0.712838,0.712302,0.710000,0.712532,0.706605,0.710240,0.716036,0.712126,0.713509,0.709174,0.709154,0.710173,0.703869,0.705980,0.707973,0.702085,0.708601,0.701198,0.701338,0.700803,0.705990,0.699283,0.699510,0.697608,0.696646,0.696844,0.688962,0.694178,0.686822,0.682743,0.684879,0.680255,0.675479,0.677788,0.674891,0.676973,0.670510,0.670710,0.661613,0.661387,0.660800,0.655239,0.656415,0.647177,0.645581,0.647475,0.642101,0.636701,0.640574,0.632930,0.632224,0.631271,0.626085,0.624698,0.621552,0.617337,0.616845,0.612372,0.607007,0.610436,0.599032,0.600683,0.597519,0.593358,0.589491,0.587268,0.584949,0.577768,0.580003,0.576182,0.576578,0.577277,0.572009,0.562635,0.564624,0.559752,0.558397,0.555543,0.550801,0.549204,0.548940,0.545305,0.538646,0.541653,0.538065,0.537685,0.538133,0.530875,0.531417,0.526280,0.524817
0.610682,0.617678,0.622564,0.630851,0.637844,0.653207,0.658604,0.667066,0.671236,0.678437,0.690748,0.706214,0.709337,0.725764,0.730816,0.746724,0.751812,0.759339,0.768224,0.781083,0.789472,0.799131,0.807277,0.814295,0.823449,0.830802,0.835656,0.847675,0.849462,0.857853,0.865972,0.877202,0.877006,0.880704,0.891009,0.889571,0.892957,0.894255,0.898294,0.894936,0.899845,0.896857,0.891928,0.895738,0.890122,0.883194,0.886414,0.880332,0.877113,0.873186,0.862868,0.860186,0.856432,0.846933,0.840854,0.830500,0.823692,0.812804,0.808120,0.796440,0.790368,0.781326,0.773498,0.760478,0.750501,0.739174,0.737172,0.719774,0.715974,0.704299,0.694434,0.685115,0.684006,0.672235,0.662655,0.659919,0.650378,0.641821,0.638591,0.632200,0.618691,0.617160,0.614385,0.606033,0.602436,0.597571,0.599158,0.585471,0.581627,0.581275,0.575996,0.578185,0.577082,0.573864,0.565898,0.568062,0.564324,0.568538,0.566739,0.565819,0.561436,0.564202,0.562379,0.559420,0.558052,0.558188,0.557354,0.557803,0.560698,0.554678,0.556292,0.561602,0.561296,0.563841,0.565110,0.563874,0.563030,0.566332,0.565934,0.562045,0.564106,0.567040,0.562837,0.568399,0.568243,0.569472,0.574089,0.570932,0.574002,0.575487,0.572211,0.575482,0.572004,0.572732,0.572112,0.571586,0.574067,0.570063,0.573075,0.575089,0.575197,0.575857,0.575976,0.573923,0.575641,0.573553,0.572167,0.571862,0.575904,0.572550,0.574313,0.573566,0.572430,0.567367,0.573725,0.573415,0.567112,0.569844,0.571663,0.564208,0.571133,0.567269,0.571143,0.566515,0.569055,0.561869,0.559308,0.564838,0.561242,0.553382,0.554001,0.557164,0.554043,0.552926,0.547251,0.551840,0.545484,0.546076,0.545203,0.538019,0.545485,0.538825,0.536304,0.532354,0.535477,0.533922,0.532113,0.533607,0.526253,0.529307,0.523913,0.524557,0.525256,0.530536,0.526652,0.517844,0.522651,0.519646,0.519769,0.517339
0.512393,0.515897,0.512648,0.516944,0.515542,0.517037,0.515926,0.523773,0.530057,0.520888,0.529300,0.528751,0.527773,0.531453,0.529201,0.530691,0.537376,0.537512,0.538049,0.544322,0.541477,0.546229,0.548210,0.555152,0.552936,0.553138,0.558099,0.558573,0.560022,0.562346,0.565842,0.569868,0.570920,0.571450,0.577633,0.582932,0.588545,0.585516,0.590324,0.590761,0.593798,0.598157,0.598158,0.607673,0.608221,0.609724,0.617745,0.621381,0.621112,0.623700,0.628229,0.631848,0.635456,0.640951,0.645230,0.646045,0.645782,0.652501,0.662838,0.663326,0.663951,0.668252,0.672412,0.679528,0.684455,0.685519,0.695789,0.696132,0.701648,0.699063,0.701492,0.706893,0.714962,0.714528,0.717949,0.722631,0.723524,0.729765,0.731690,0.732119,0.740990,0.736822,0.740927,0.745885,0.746745,0.753853,0.752551,0.754565,0.761516,0.761901,0.766537,0.761364,0.765319,0.766620,0.770946,0.768296,0.775545,0.778405,0.780497,0.771127,0.773699,0.776413,0.780287,0.777262,0.778272,0.779252,0.779058,0.782993,0.778792,0.781284,0.778033,0.779566,0.783169,0.782425,0.778444,0.776902,0.780475,0.778065,0.775578,0.775597,0.775356,0.771135,0.769213,0.769656,0.771474,0.765778,0.762464,0.765102,0.758722,0.751119,0.754067,0.747581,0.744740,0.748449,0.735967,0.737421,0.731529,0.735339,0.731425,0.727531,0.721042,0.718576,0.714970,0.708855,0.706475,0.698773,0.699284,0.695313,0.690870,0.690332,0.679653,0.675674,0.677629,0.669465,0.669705,0.662825,0.662626,0.655277,0.653149,0.647249,0.648522,0.647755,0.637700,0.635074,0.631290,0.626190,0.622515,0.622915,0.614358,0.616137,0.613703,0.599263,0.603822,0.602444,0.594358,0.593482,0.591996,0.585046,0.584555,0.583319,0.580060,0.575924,0.573294,0.563050,0.566931,0.565843,0.560936,0.555813,0.554373,0.548914,0.549299,0.543800,0.547593,0.544387,0.542632,0.541063,0.539250,0.532283,0.535030,0.534343
0.500582,0.502649,0.505125,0.501152,0.501443,0.502119,0.500821,0.506743,0.503914,0.504350,0.508125,0.505044,0.505359,0.502169,0.504313,0.506135,0.503548,0.510241,0.507888,0.503762,0.503226,0.509509,0.502249,0.507502,0.509532,0.510203,0.506680,0.507072,0.511054,0.510339,0.512487,0.514112,0.506993,0.510226,0.508542,0.511470,0.512704,0.510973,0.513737,0.514881,0.508208,0.516557,0.514881,0.509113,0.515434,0.517446,0.516897,0.517817,0.523115,0.518310,0.520592,0.523362,0.519646,0.524046,0.526284,0.518890,0.528040,0.528579,0.528271,0.529689,0.526380,0.535006,0.533441,0.529502,0.536109,0.536974,0.535096,0.541894,0.543973,0.541726,0.553785,0.553361,0.550752,0.556713,0.555775,0.559885,0.566504,0.568843,0.567362,0.580328,0.583655,0.581680,0.590305,0.587757,0.590802,0.600690,0.600193,0.607387,0.610986,0.611997,0.622402,0.626299,0.631613,0.637503,0.643410,0.651351,0.656319,0.659033,0.667911,0.673152,0.674460,0.678218,0.683955,0.693537,0.697086,0.706145,0.714457,0.714327,0.722539,0.727786,0.737497,0.739223,0.743369,0.748391,0.756882,0.759713,0.765466,0.770100,0.779780,0.775890,0.786916,0.792634,0.796942,0.799822,0.803335,0.804642,0.806871,0.814328,0.816789,0.821948,0.829076,0.831337,0.837777,0.837210,0.839546,0.836727,0.845378,0.850002,0.850502,0.852880,0.857453,0.857299,0.857438,0.855079,0.858675,0.861523,0.862606,0.864645,0.860595,0.858552,0.858234,0.858220,0.855804,0.856803,0.851956,0.846535,0.850472,0.846579,0.839872,0.841331,0.838692,0.831347,0.828810,0.820794,0.820720,0.814908,0.808371,0.804923,0.796251,0.789394,0.782276,0.783378,0.768434,0.765077,0.755480,0.745981,0.747673,0.736021,0.727364,0.719227,0.714247,0.704915,0.696825,0.688774,0.679136,0.674676,0.667243,0.660733,0.653637,0.643039,0.639328,0.627868,0.629929,0.623327,0.617966,0.605538,0.599111,0.597896,0.584420,0.583780
0.545819,0.550245,0.550819,0.555941,0.559422,0.568350,0.567028,0.574322,0.570429,0.576879,0.586328,0.585455,0.592657,0.600963,0.602294,0.603219,0.613795,0.615417,0.615983,0.622958,0.627372,0.634284,0.638721,0.642181,0.642326,0.650099,0.655669,0.658185,0.663987,0.668377,0.676353,0.672697,0.681366,0.685078,0.682822,0.686252,0.689941,0.691077,0.696111,0.698263,0.698191,0.702039,0.700754,0.701788,0.701921,0.707837,0.706674,0.708056,0.709525,0.712837,0.709680,0.712197,0.709607,0.710977,0.707534,0.708772,0.711041,0.711159,0.708695,0.705500,0.708837,0.704054,0.705468,0.700516,0.702559,0.705864,0.698807,0.700303,0.696781,0.701089,0.696673,0.698194,0.697130,0.697131,0.692551,0.693138,0.689083,0.688589,0.686718,0.685978,0.686493,0.687913,0.686434,0.686769,0.684401,0.685331,0.682838,0.679567,0.682124,0.682764,0.682025,0.678994,0.678710,0.683115,0.679854,0.680206,0.678631,0.674109,0.679515,0.676858,0.676794,0.680905,0.680258,0.677906,0.677982,0.672623,0.673140,0.669994,0.670894,0.676227,0.677958,0.678084,0.674627,0.671710,0.673243,0.674084,0.673246,0.679036,0.672551,0.673487,0.669732,0.673427,0.674640,0.675487,0.673166,0.676245,0.675326,0.672098,0.671872,0.668114,0.665515,0.670034,0.670632,0.668221,0.669577,0.667289,0.664290,0.665796,0.665890,0.667656,0.661906,0.660905,0.661431,0.664678,0.657882,0.659760,0.660257,0.657478,0.656860,0.656976,0.653329,0.653891,0.650763,0.649256,0.651796,0.647331,0.641551,0.638490,0.637045,0.636458,0.633386,0.633716,0.631799,0.629367,0.626219,0.622473,0.623311,0.618471,0.614922,0.611645,0.605138,0.605283,0.606929,0.600603,0.597965,0.588611,0.594574,0.586838,0.583569,0.585195,0.578419,0.571303,0.569522,0.568218,0.567955,0.561250,0.560597,0.554822,0.553505,0.549222,0.547906,0.549057,0.541640,0.540041,0.534025,0.540320,0.533550,0.524994,0.528578,0.524859
0.521276,0.527315,0.522425,0.526220,0.532497,0.527955,0.529561,0.534305,0.538859,0.535216,0.541362,0.541970,0.549722,0.548484,0.554313,0.556606,0.557741,0.560079,0.564994,0.564565,0.566757,0.577412,0.582281,0.582000,0.590216,0.594435,0.594445,0.595321,0.609953,0.607973,0.616539,0.620533,0.627226,0.635290,0.635624,0.644734,0.650898,0.651639,0.657088,0.666892,0.671058,0.677407,0.683854,0.693565,0.707516,0.710233,0.714551,0.724408,0.729568,0.738164,0.747305,0.753406,0.762836,0.770762,0.776617,0.785916,0.793224,0.801350,0.810300,0.817977,0.820583,0.828181,0.837480,0.842456,0.848038,0.857963,0.862731,0.868338,0.871898,0.879303,0.875559,0.885535,0.888173,0.892559,0.895546,0.898662,0.898477,0.901770,0.900621,0.899888,0.902439,0.903521,0.896764,0.897852,0.898491,0.895607,0.890331,0.890207,0.884738,0.875810,0.878906,0.864931,0.866392,0.858449,0.853103,0.855362,0.840705,0.836026,0.826292,0.819210,0.810352,0.800667,0.793943,0.792093,0.782140,0.773394,0.769144,0.763585,0.746299,0.740209,0.735347,0.727751,0.714791,0.712479,0.706116,0.700377,0.695272,0.682933,0.674433,0.670081,0.661618,0.660619,0.649160,0.646158,0.633502,0.635891,0.628325,0.626570,0.618296,0.610197,0.606488,0.605086,0.598209,0.596929,0.587294,0.584917,0.581683,0.582035,0.575309,0.573999,0.570036,0.564885,0.561429,0.562027,0.557375,0.554395,0.554306,0.550661,0.549360,0.543870,0.545386,0.545309,0.539927,0.540142,0.539665,0.537481,0.533675,0.535491,0.527569,0.531168,0.525168,0.526746,0.528497,0.523122,0.519060,0.520216,0.518148,0.518627,0.519490,0.520125,0.517777,0.516515,0.509953,0.516858,0.512325,0.516370,0.513657,0.516097,0.509620,0.513973,0.507728,0.513728,0.514726,0.512176,0.511534,0.513614,0.504517,0.509368,0.501672,0.509680,0.507884,0.507502,0.508067,0.509027,0.512139,0.506575,0.508610,0.507668,0.501612,0.504935
0.507615,0.505793,0.504729,0.509291,0.508590,0.507097,0.506964,0.505670,0.507770,0.506217,0.514027,0.509321,0.512041,0.515421,0.514628,0.511359,0.515068,0.524395,0.517370,0.517974,0.523710,0.522034,0.521208,0.527948,0.527728,0.528334,0.530799,0.530762,0.531703,0.537995,0.536522,0.540200,0.542481,0.547888,0.546060,0.549543,0.553247,0.559210,0.558602,0.563718,0.563963,0.572366,0.570975,0.574412,0.582222,0.585854,0.584428,0.592821,0.597971,0.602497,0.604433,0.608134,0.612146,0.616398,0.616309,0.626936,0.630804,0.636497,0.640222,0.643248,0.649502,0.649770,0.654255,0.658863,0.656322,0.668345,0.673510,0.672808,0.680280,0.674556,0.683827,0.690497,0.687632,0.692531,0.695816,0.697746,0.700572,0.697684,0.700002,0.704800,0.702885,0.699524,0.704950,0.701253,0.706637,0.702954,0.705802,0.701700,0.701320,0.700738,0.699429,0.691880,0.697149,0.687440,0.693558,0.686204,0.685916,0.687130,0.681298,0.683740,0.681390,0.685234,0.679504,0.678197,0.674617,0.676743,0.674983,0.674181,0.668388,0.670175,0.669530,0.665543,0.664585,0.664625,0.663944,0.663622,0.666501,0.664724,0.670439,0.671068,0.667289,0.672136,0.678733,0.675077,0.679775,0.683440,0.686563,0.681643,0.690473,0.690136,0.695059,0.699538,0.702596,0.704119,0.708438,0.712294,0.716767,0.717413,0.725009,0.732250,0.734788,0.741615,0.734890,0.741374,0.749376,0.747584,0.752066,0.757799,0.763340,0.755619,0.766971,0.764047,0.768503,0.764866,0.768281,0.768759,0.775278,0.768773,0.771038,0.769553,0.765048,0.762400,0.766233,0.765212,0.759493,0.754846,0.754714,0.745532,0.746935,0.741278,0.741319,0.729701,0.726667,0.722646,0.715873,0.714974,0.708601,0.698555,0.692904,0.687685,0.681739,0.675797,0.668264,0.662721,0.655917,0.651563,0.643880,0.639891,0.629999,0.625287,0.618030,0.613541,0.603125,0.605042,0.596778,0.595583,0.584858,0.587693,0.580768,0.573089
0.510897,0.509539,0.513516,0.509390,0.515596,0.513355,0.513560,0.515314,0.515722,0.515559,0.519978,0.516180,0.516628,0.517370,0.515949,0.522649,0.525612,0.518503,0.526699,0.524461,0.524072,0.526883,0.524301,0.528422,0.529150,0.533713,0.532674,0.532065,0.532266,0.530324,0.533389,0.538424,0.534716,0.537815,0.536888,0.537950,0.533403,0.538659,0.538679,0.533603,0.544131,0.538848,0.537548,0.540514,0.537695,0.540378,0.546398,0.541882,0.542007,0.540434,0.542315,0.541038,0.537568,0.541831,0.540760,0.544259,0.545511,0.543689,0.543956,0.542297,0.541356,0.544414,0.543598,0.549524,0.547878,0.547894,0.548328,0.549486,0.553025,0.545850,0.551791,0.552270,0.546857,0.547622,0.549871,0.555978,0.562893,0.557661,0.557682,0.558619,0.558412,0.558677,0.561324,0.567525,0.562690,0.570272,0.570548,0.570152,0.575755,0.579663,0.579687,0.579058,0.586751,0.591778,0.593216,0.595098,0.592498,0.601630,0.606173,0.604342,0.610211,0.610771,0.613818,0.619619,0.623665,0.624710,0.630549,0.632646,0.639518,0.645196,0.647634,0.655349,0.664376,0.662887,0.670789,0.674651,0.682019,0.688249,0.690479,0.697646,0.706080,0.707762,0.712730,0.719832,0.729743,0.736822,0.737356,0.747577,0.751984,0.760525,0.766491,0.770954,0.775761,0.787839,0.788618,0.799831,0.800607,0.805029,0.811308,0.819278,0.828680,0.829370,0.833609,0.839429,0.844477,0.853627,0.852515,0.862029,0.860788,0.865572,0.866872,0.872986,0.872881,0.872355,0.872575,0.875207,0.876693,0.877800,0.869305,0.870628,0.871871,0.863829,0.864715,0.856114,0.852912,0.851145,0.847131,0.845838,0.838496,0.825947,0.824376,0.818391,0.807519,0.803729,0.791961,0.791063,0.779752,0.772213,0.765471,0.751915,0.742539,0.737646,0.726094,0.722581,0.704934,0.703684,0.693216,0.682900,0.678579,0.669876,0.660756,0.655748,0.641015,0.630379,0.629634,0.617493,0.614137,0.605761,0.597603,0.588614
0.524580,0.530699,0.527729,0.532813,0.534136,0.537245,0.540651,0.538539,0.540698,0.542633,0.550503,0.553011,0.556048,0.559624,0.557583,0.559296,0.562434,0.567623,0.572124,0.572506,0.579075,0.582766,0.582207,0.582058,0.588052,0.592624,0.593065,0.602940,0.600537,0.603812,0.602774,0.607302,0.612817,0.616225,0.620627,0.619134,0.626102,0.624107,0.626623,0.634896,0.637077,0.632011,0.637244,0.644328,0.648877,0.647716,0.650915,0.648787,0.649811,0.646697,0.659042,0.657675,0.661564,0.661989,0.666651,0.666583,0.670172,0.665677,0.670142,0.673000,0.675272,0.672776,0.678456,0.679087,0.680145,0.673268,0.680204,0.675944,0.680267,0.680891,0.682211,0.679461,0.683611,0.682296,0.679585,0.682147,0.681823,0.681678,0.675282,0.677456,0.678966,0.677453,0.671838,0.680411,0.671473,0.671962,0.672038,0.665291,0.670609,0.661003,0.664402,0.662970,0.658194,0.661559,0.654884,0.650858,0.653101,0.650535,0.648092,0.642974,0.641390,0.645991,0.643113,0.636821,0.642190,0.636734,0.633900,0.638329,0.634597,0.634412,0.634842,0.634423,0.632055,0.632903,0.627727,0.631484,0.629948,0.636335,0.633012,0.636007,0.639539,0.636055,0.642647,0.646041,0.645019,0.647442,0.651440,0.652701,0.654809,0.659393,0.660563,0.662348,0.667645,0.667910,0.674347,0.678422,0.682176,0.687963,0.686380,0.695208,0.693157,0.698806,0.700213,0.708650,0.708325,0.712407,0.717591,0.719094,0.721652,0.722407,0.724524,0.724345,0.726472,0.728311,0.730307,0.730050,0.734640,0.730224,0.730089,0.734590,0.726216,0.731349,0.728247,0.722597,0.718516,0.720198,0.718581,0.711755,0.712113,0.702804,0.705259,0.698910,0.694270,0.690886,0.685159,0.682004,0.675822,0.673688,0.665354,0.661493,0.657424,0.652111,0.639588,0.635778,0.632311,0.626620,0.620588,0.611611,0.605760,0.607207,0.595680,0.592089,0.590666,0.581184,0.574786,0.573401,0.570753,0.563371,0.559860,0.553147
0.536398,0.536938,0.543169,0.540318,0.543733,0.547292,0.548959,0.558659,0.554672,0.558925,0.565109,0.564210,0.566136,0.566503,0.578680,0.579314,0.582642,0.586851,0.585544,0.593441,0.600455,0.599421,0.608772,0.610007,0.612705,0.618643,0.623067,0.628148,0.631978,0.635499,0.634892,0.640229,0.654349,0.653546,0.654219,0.658475,0.660934,0.666737,0.672082,0.673947,0.679730,0.684506,0.685850,0.690576,0.694617,0.701100,0.704763,0.707771,0.709429,0.717454,0.719865,0.721541,0.724194,0.735202,0.731594,0.738517,0.739963,0.743001,0.741350,0.751579,0.752708,0.754751,0.760556,0.755698,0.757490,0.766777,0.762638,0.764145,0.767837,0.769850,0.768095,0.768546,0.769082,0.776242,0.771411,0.771034,0.772858,0.774163,0.774523,0.770299,0.767536,0.768975,0.765768,0.765622,0.762103,0.759770,0.760596,0.755006,0.757433,0.750554,0.749246,0.744813,0.743911,0.740816,0.736456,0.730215,0.731860,0.727930,0.723597,0.717127,0.710715,0.712252,0.703561,0.704030,0.694229,0.696547,0.691221,0.685127,0.680310,0.685164,0.676025,0.670563,0.671507,0.662068,0.663160,0.658010,0.658214,0.653851,0.655023,0.647777,0.647905,0.649360,0.639111,0.640442,0.641738,0.639465,0.639192,0.634339,0.635753,0.635046,0.639850,0.632611,0.637128,0.636772,0.632317,0.634800,0.632898,0.636917,0.638883,0.638337,0.639580,0.638701,0.635857,0.639926,0.632425,0.637445,0.638297,0.634733,0.641601,0.641886,0.642240,0.633795,0.638201,0.639093,0.638723,0.635948,0.635256,0.635601,0.634646,0.633471,0.629930,0.626385,0.626623,0.621505,0.624561,0.620275,0.618127,0.619137,0.614221,0.615811,0.612483,0.610653,0.600793,0.606464,0.605189,0.600618,0.603246,0.591099,0.591260,0.593993,0.583073,0.585744,0.584005,0.580194,0.575208,0.569799,0.568432,0.569768,0.563782,0.562164,0.556486,0.555195,0.556177,0.550263,0.550044,0.547752,0.542314,0.540934,0.539457,0.533283
0.528910,0.534665,0.532214,0.533613,0.535093,0.538955,0.540136,0.544096,0.546570,0.545097,0.550843,0.547456,0.554177,0.554825,0.561189,0.559542,0.567342,0.562569,0.567938,0.575144,0.576139,0.577970,0.582049,0.579667,0.584550,0.587806,0.587829,0.588831,0.588285,0.592871,0.596756,0.598854,0.599957,0.601309,0.600307,0.601323,0.606264,0.606435,0.609462,0.599759,0.606997,0.604359,0.609077,0.607427,0.609811,0.605490,0.610434,0.605642,0.611669,0.602792,0.603325,0.606790,0.600458,0.604391,0.599510,0.597245,0.604597,0.600714,0.596509,0.597058,0.592791,0.590227,0.584488,0.586320,0.591646,0.584967,0.582359,0.590752,0.585576,0.584796,0.583945,0.582852,0.580841,0.581929,0.578350,0.581257,0.577812,0.577655,0.581416,0.582806,0.584535,0.584019,0.579676,0.587026,0.585002,0.589270,0.588438,0.597456,0.590272,0.598443,0.594516,0.597269,0.601791,0.599809,0.603451,0.607637,0.607824,0.613729,0.615143,0.621252,0.626584,0.626507,0.627459,0.632162,0.635013,0.638185,0.644264,0.647932,0.646296,0.655385,0.652879,0.666487,0.667510,0.672861,0.669752,0.679021,0.683040,0.688782,0.690086,0.696316,0.696560,0.705304,0.705163,0.710953,0.714279,0.720780,0.721704,0.732200,0.731345,0.735119,0.737667,0.739351,0.754348,0.752283,0.750605,0.760577,0.766035,0.761168,0.770318,0.771155,0.774116,0.777478,0.777958,0.783515,0.788926,0.783857,0.788815,0.793264,0.797093,0.792446,0.797104,0.797356,0.795800,0.793626,0.793408,0.795022,0.793994,0.792051,0.789330,0.793878,0.788390,0.784183,0.783728,0.777962,0.780259,0.772088,0.769951,0.763878,0.759430,0.752780,0.743021,0.743843,0.732102,0.732224,0.728060,0.719547,0.716133,0.704202,0.693019,0.695744,0.682647,0.675979,0.672241,0.673101,0.659161,0.647081,0.647064,0.642117,0.634049,0.627726,0.621419,0.616691,0.611779,0.604766,0.599931,0.586827,0.582465,0.575780,0.580874,0.568868
0.526887,0.533962,0.535342,0.543274,0.542632,0.543782,0.546826,0.548015,0.550307,0.554692,0.555963,0.556899,0.568357,0.566271,0.568673,0.572260,0.583359,0.581167,0.587407,0.590263,0.594989,0.598217,0.596390,0.605925,0.607596,0.613747,0.619657,0.628157,0.629245,0.628309,0.640911,0.641450,0.646156,0.651727,0.656701,0.663863,0.665345,0.671577,0.672208,0.685493,0.690843,0.689646,0.698340,0.703761,0.711978,0.713339,0.716118,0.724903,0.732662,0.730814,0.739727,0.745049,0.747693,0.756044,0.763287,0.761672,0.770934,0.777612,0.779473,0.787682,0.790515,0.790734,0.795351,0.799831,0.808149,0.812070,0.816900,0.815190,0.820564,0.824958,0.820404,0.825956,0.833504,0.828407,0.827243,0.832900,0.833243,0.835849,0.834352,0.833818,0.838197,0.832630,0.831748,0.831373,0.824558,0.824926,0.825645,0.821716,0.813839,0.813554,0.807545,0.804912,0.797924,0.798035,0.787392,0.790224,0.785286,0.776603,0.775364,0.768510,0.761825,0.755872,0.750762,0.742892,0.737541,0.730747,0.731584,0.719035,0.713340,0.710724,0.700659,0.700029,0.692675,0.695777,0.683641,0.675976,0.670373,0.667134,0.664945,0.658451,0.652413,0.648515,0.649054,0.643709,0.641480,0.632450,0.629209,0.628853,0.623918,0.619924,0.620583,0.616859,0.615496,0.608616,0.604604,0.603458,0.599536,0.599348,0.593717,0.594875,0.589255,0.590873,0.581509,0.589516,0.581582,0.583371,0.581575,0.580441,0.582295,0.576507,0.574152,0.573122,0.568175,0.566558,0.569784,0.567846,0.565181,0.564317,0.564457,0.562371,0.557753,0.559862,0.556739,0.556850,0.554199,0.553740,0.551005,0.549464,0.552331,0.545550,0.541149,0.541311,0.543777,0.547115,0.545445,0.541374,0.537992,0.534930,0.536305,0.539656,0.537149,0.532542,0.529524,0.530912,0.528784,0.528949,0.526193,0.525311,0.522596,0.520688,0.515992,0.520302,0.513983,0.518402,0.513318,0.513710,0.512534,0.513015,0.512515,0.509809
0.521205,0.525357,0.529239,0.526971,0.528039,0.535575,0.533480,0.540741,0.534903,0.537967,0.542944,0.542989,0.539909,0.540396,0.548414,0.554196,0.556293,0.556852,0.555036,0.558542,0.564896,0.561519,0.566375,0.564191,0.570584,0.570290,0.571260,0.571364,0.573807,0.578905,0.575788,0.579921,0.582376,0.583851,0.579201,0.581950,0.582385,0.580308,0.584918,0.585585,0.587813,0.583196,0.587179,0.583361,0.583105,0.580780,0.587429,0.584636,0.578080,0.582874,0.580610,0.579452,0.577816,0.577588,0.582529,0.580814,0.569938,0.576530,0.578690,0.576704,0.571854,0.574095,0.573651,0.569106,0.566190,0.573568,0.572537,0.572569,0.571717,0.572418,0.565513,0.572201,0.570465,0.572910,0.577372,0.575562,0.579917,0.582270,0.579824,0.586127,0.593112,0.591792,0.596501,0.599038,0.604803,0.603778,0.610750,0.611357,0.616529,0.623447,0.630514,0.632980,0.637420,0.648843,0.650769,0.656622,0.662635,0.663616,0.669492,0.679299,0.681134,0.693422,0.690796,0.701972,0.704959,0.715644,0.719324,0.729347,0.733264,0.735391,0.741623,0.748763,0.750271,0.755434,0.761521,0.764428,0.768757,0.770405,0.774813,0.777365,0.782085,0.783050,0.789993,0.786576,0.791964,0.793482,0.794650,0.797839,0.797368,0.797069,0.804227,0.803701,0.801025,0.801664,0.797287,0.801046,0.802953,0.798453,0.792078,0.796906,0.793731,0.798491,0.799132,0.792748,0.789605,0.793249,0.789955,0.778684,0.780746,0.780539,0.775830,0.774135,0.768501,0.767159,0.761300,0.762043,0.757579,0.755989,0.748783,0.744888,0.742707,0.736997,0.729007,0.729112,0.721700,0.719669,0.715048,0.708037,0.706239,0.693207,0.691604,0.685682,0.682604,0.675198,0.668729,0.668277,0.658353,0.658034,0.644761,0.640729,0.641833,0.631392,0.628288,0.624583,0.616893,0.611023,0.599349,0.597040,0.596612,0.589207,0.585990,0.580491,0.578940,0.574884,0.566860,0.564397,0.560891,0.558395,0.548360,0.547183
0.523554,0.521396,0.525227,0.524725,0.526357,0.533163,0.528165,0.533653,0.531846,0.533601,0.533135,0.536011,0.539941,0.537337,0.540454,0.542110,0.548920,0.549230,0.549981,0.550715,0.551833,0.554789,0.554725,0.561496,0.563122,0.567652,0.566929,0.566183,0.572805,0.572383,0.575913,0.577477,0.579686,0.583281,0.582508,0.587858,0.591220,0.589229,0.588105,0.597606,0.591672,0.600113,0.596523,0.594766,0.596743,0.598625,0.604497,0.605716,0.606216,0.601591,0.609818,0.612927,0.612441,0.615820,0.617272,0.622787,0.621456,0.619209,0.619171,0.624513,0.625947,0.628079,0.632652,0.634271,0.634508,0.640989,0.641837,0.642867,0.646554,0.654181,0.650762,0.654646,0.658949,0.659624,0.663399,0.670963,0.670919,0.676318,0.676188,0.686034,0.687257,0.690511,0.699197,0.700782,0.707094,0.709543,0.715382,0.719987,0.723646,0.731972,0.737462,0.744006,0.746297,0.756043,0.757867,0.765449,0.766953,0.774089,0.781334,0.784323,0.791726,0.798821,0.805735,0.803939,0.808331,0.815586,0.817123,0.817559,0.828834,0.825690,0.836742,0.837627,0.836366,0.837544,0.839401,0.843658,0.840704,0.842649,0.846945,0.844341,0.844646,0.840076,0.840506,0.838869,0.832119,0.836089,0.831304,0.826764,0.827364,0.820437,0.818143,0.809647,0.806167,0.796383,0.798531,0.786842,0.783718,0.776714,0.771437,0.766928,0.759026,0.750596,0.743069,0.740389,0.734911,0.722123,0.720026,0.706870,0.708226,0.690321,0.690677,0.682036,0.679473,0.672214,0.666743,0.655950,0.656180,0.651081,0.641971,0.636630,0.627232,0.625418,0.627128,0.616701,0.608390,0.612374,0.605346,0.596252,0.591705,0.594957,0.585405,0.579413,0.574259,0.571974,0.569901,0.566694,0.567359,0.563204,0.557376,0.559687,0.552587,0.552318,0.549765,0.549225,0.540338,0.544656,0.540115,0.536920,0.536379,0.532905,0.535206,0.530709,0.534053,0.532128,0.529343,0.524117,0.522011,0.523265,0.523404,0.519515
0.507094,0.501834,0.505513,0.507012,0.507894,0.509086,0.511456,0.510684,0.510382,0.504752,0.512062,0.511431,0.514134,0.521406,0.521004,0.518741,0.516796,0.516656,0.522900,0.523584,0.532540,0.529224,0.532139,0.531181,0.540200,0.536822,0.542163,0.544129,0.545529,0.549411,0.554364,0.560443,0.555091,0.565381,0.566041,0.573718,0.577133,0.580691,0.588287,0.594345,0.598361,0.605915,0.611054,0.617925,0.623693,0.628356,0.633245,0.642635,0.649171,0.649465,0.658006,0.668313,0.674912,0.680386,0.691148,0.692366,0.701128,0.707709,0.714581,0.727511,0.731815,0.739365,0.740693,0.750013,0.754636,0.759053,0.763194,0.773382,0.775692,0.782616,0.790900,0.787329,0.795071,0.798438,0.803942,0.805014,0.805291,0.805925,0.812194,0.814267,0.811734,0.810218,0.810086,0.807135,0.807204,0.806810,0.804496,0.799417,0.796411,0.797708,0.791073,0.787435,0.783123,0.776290,0.770513,0.771039,0.765906,0.761283,0.751988,0.747814,0.743534,0.732424,0.728145,0.726570,0.720124,0.711638,0.705602,0.699296,0.699282,0.693995,0.685292,0.681206,0.680736,0.677943,0.669214,0.664463,0.663744,0.657604,0.654416,0.651216,0.650050,0.652459,0.645972,0.647474,0.642637,0.642401,0.638302,0.641400,0.641105,0.645340,0.644614,0.644323,0.644865,0.640583,0.646185,0.645440,0.646596,0.648073,0.651209,0.650102,0.656772,0.654945,0.660732,0.654587,0.661558,0.664331,0.662422,0.660747,0.665854,0.666277,0.663606,0.669931,0.663530,0.667326,0.665431,0.671073,0.670593,0.667409,0.667982,0.674703,0.668351,0.668066,0.667064,0.666304,0.660871,0.658186,0.658415,0.656657,0.650886,0.649650,0.647313,0.649500,0.639339,0.642211,0.634217,0.631336,0.626889,0.624433,0.618329,0.618189,0.609896,0.611356,0.604028,0.600928,0.599108,0.592912,0.585830,0.585811,0.580031,0.580390,0.569885,0.566683,0.565488,0.557900,0.557727,0.554115,0.553538,0.550388,0.548975,0.540592
0.514898,0.516813,0.514800,0.514564,0.513624,0.517954,0.519382,0.524131,0.525213,0.527989,0.529878,0.531067,0.529724,0.532500,0.534146,0.538336,0.538245,0.543703,0.545493,0.544224,0.547212,0.553407,0.555270,0.560437,0.561236,0.566994,0.571396,0.567064,0.570139,0.575974,0.582326,0.585135,0.584946,0.592447,0.593048,0.595556,0.606445,0.613162,0.609977,0.618975,0.622422,0.623182,0.634796,0.632938,0.641936,0.648982,0.651739,0.660207,0.664450,0.675146,0.680477,0.678474,0.693817,0.696246,0.701639,0.705661,0.715743,0.720001,0.728307,0.733550,0.735730,0.747506,0.751387,0.753362,0.762110,0.762619,0.773982,0.777811,0.784219,0.783742,0.792652,0.795431,0.801793,0.805253,0.808446,0.814223,0.819284,0.818650,0.820412,0.827378,0.825416,0.830587,0.832840,0.835441,0.840338,0.835176,0.839713,0.839517,0.838547,0.843729,0.843967,0.837533,0.841635,0.834304,0.835294,0.834230,0.836875,0.834832,0.838116,0.824922,0.823656,0.820990,0.818235,0.817318,0.818713,0.813716,0.810351,0.805997,0.805777,0.803153,0.793327,0.795455,0.786456,0.786469,0.783138,0.772274,0.770563,0.766536,0.759819,0.758464,0.753421,0.748876,0.744055,0.738933,0.732144,0.729342,0.721989,0.719420,0.711394,0.706586,0.700011,0.701106,0.688141,0.683503,0.680899,0.674259,0.661378,0.661606,0.659686,0.649941,0.643986,0.638596,0.632255,0.625068,0.618038,0.618026,0.608019,0.604063,0.602548,0.593603,0.590881,0.581821,0.579311,0.575091,0.572818,0.568112,0.559899,0.562631,0.557642,0.556157,0.548312,0.547417,0.539894,0.539349,0.533898,0.536364,0.525411,0.523644,0.524180,0.522544,0.515616,0.515591,0.516715,0.515474,0.510183,0.511251,0.506933,0.510627,0.509753,0.507212,0.505736,0.502690,0.511061,0.501041,0.499713,0.503716,0.500439,0.500743,0.497541,0.504240,0.501965,0.497406,0.498906,0.497295,0.493521,0.499340,0.498701,0.495779,0.496282,0.495234
0.506819,0.510644,0.512866,0.510923,0.510668,0.508432,0.511357,0.508596,0.515170,0.512596,0.515563,0.514056,0.519559,0.519644,0.515676,0.519812,0.523364,0.522444,0.522407,0.527304,0.523681,0.528201,0.531726,0.527975,0.531146,0.535100,0.535298,0.534587,0.540353,0.543692,0.546936,0.544126,0.550697,0.549058,0.554339,0.554467,0.559092,0.563814,0.562365,0.566051,0.564266,0.574779,0.572019,0.580155,0.582333,0.586516,0.591061,0.590042,0.595234,0.602945,0.601983,0.607067,0.610006,0.616630,0.625652,0.618066,0.626861,0.630652,0.633585,0.643409,0.642752,0.650275,0.660384,0.655475,0.668449,0.670334,0.671009,0.679142,0.679592,0.687495,0.690506,0.697001,0.699823,0.700245,0.708725,0.712290,0.719793,0.719494,0.727412,0.725443,0.733983,0.736587,0.742083,0.745469,0.754110,0.753131,0.757873,0.755944,0.763271,0.768419,0.766491,0.774956,0.777841,0.776962,0.783665,0.785055,0.781590,0.794226,0.794660,0.789764,0.797603,0.799376,0.798600,0.803096,0.803969,0.804264,0.808601,0.804474,0.810161,0.807375,0.809411,0.813763,0.807562,0.810395,0.815597,0.808186,0.811141,0.809423,0.806564,0.803147,0.808935,0.803774,0.799677,0.799703,0.794067,0.791263,0.790846,0.794998,0.787485,0.780656,0.782089,0.771469,0.771713,0.767272,0.767827,0.759723,0.755949,0.747674,0.742295,0.740764,0.737956,0.734465,0.724957,0.725368,0.720226,0.707857,0.707894,0.702149,0.700587,0.696169,0.689216,0.682973,0.678062,0.674336,0.666268,0.665118,0.658190,0.660946,0.651870,0.644119,0.640461,0.632423,0.634745,0.625474,0.625235,0.621125,0.617320,0.609763,0.607599,0.603194,0.605545,0.598458,0.593466,0.590639,0.588770,0.584804,0.574486,0.576641,0.574682,0.573559,0.569295,0.563970,0.560120,0.559432,0.555111,0.552695,0.549591,0.547900,0.541876,0.539065,0.543363,0.538288,0.533234,0.535976,0.531033,0.527213,0.527928,0.525210,0.523410,0.520303
0.511604,0.511915,0.511598,0.512195,0.512007,0.514817,0.512722,0.520348,0.519829,0.523526,0.517500,0.522166,0.521869,0.526010,0.529198,0.525946,0.530301,0.530557,0.531257,0.533274,0.537732,0.536170,0.537057,0.540133,0.542819,0.546097,0.551853,0.548936,0.553443,0.551359,0.553648,0.557509,0.558107,0.561941,0.563538,0.570675,0.571863,0.571079,0.571900,0.574799,0.574102,0.579754,0.580703,0.578905,0.586757,0.590590,0.591791,0.593260,0.596875,0.594340,0.603717,0.607630,0.602090,0.611201,0.614633,0.616142,0.619323,0.625033,0.627629,0.623843,0.630547,0.633877,0.635646,0.637069,0.636487,0.646346,0.647850,0.650366,0.652947,0.654622,0.658399,0.663110,0.667381,0.666031,0.668373,0.670387,0.672350,0.679050,0.672874,0.676029,0.679690,0.681406,0.685384,0.688447,0.685463,0.689149,0.690067,0.694174,0.697243,0.693225,0.694357,0.698251,0.700027,0.700572,0.701223,0.707592,0.704059,0.711879,0.707484,0.711858,0.708313,0.708368,0.714770,0.712194,0.711634,0.718281,0.714501,0.717521,0.717634,0.718957,0.719589,0.721432,0.721153,0.727170,0.721880,0.727964,0.725073,0.727581,0.728670,0.731025,0.735340,0.732838,0.737836,0.737776,0.738034,0.736081,0.735473,0.741604,0.739956,0.744188,0.741936,0.748543,0.746844,0.750348,0.748858,0.747558,0.752570,0.752438,0.754752,0.748521,0.752092,0.753194,0.752493,0.754692,0.755402,0.755738,0.757388,0.755545,0.758038,0.755724,0.752230,0.752181,0.754134,0.749706,0.746905,0.748426,0.748671,0.743657,0.743314,0.740742,0.736502,0.732082,0.730655,0.730916,0.727901,0.728189,0.720206,0.712798,0.706603,0.705401,0.698681,0.702772,0.693019,0.686857,0.684987,0.673131,0.670748,0.667812,0.662454,0.657342,0.652676,0.642620,0.641608,0.638670,0.629369,0.624531,0.620529,0.618602,0.608811,0.601560,0.597726,0.592024,0.585315,0.583075,0.582053,0.577104,0.575830,0.568277,0.565833,0.557293
0.507616,0.512338,0.509190,0.509894,0.506556,0.509989,0.513507,0.513935,0.510396,0.513210,0.511777,0.515906,0.513740,0.510990,0.516774,0.518126,0.519814,0.519632,0.527513,0.521504,0.517311,0.524279,0.527636,0.528266,0.526706,0.528558,0.526872,0.533530,0.531703,0.528622,0.535222,0.535744,0.534556,0.535567,0.537093,0.536535,0.535728,0.544312,0.541220,0.547951,0.543207,0.542235,0.543288,0.548322,0.546020,0.553191,0.555629,0.549801,0.553519,0.556060,0.555715,0.556535,0.556084,0.559799,0.561767,0.562325,0.566432,0.568647,0.566781,0.570708,0.575280,0.573263,0.581756,0.577292,0.580138,0.582609,0.583452,0.588271,0.588266,0.591904,0.590742,0.597226,0.597273,0.604170,0.601908,0.603626,0.606758,0.613849,0.616318,0.623307,0.621888,0.626608,0.630665,0.631267,0.639645,0.641510,0.647291,0.651353,0.656335,0.658304,0.658957,0.661136,0.669770,0.671399,0.679367,0.680456,0.685736,0.694002,0.693596,0.705483,0.706117,0.706571,0.713906,0.718723,0.724274,0.725835,0.733929,0.741473,0.743865,0.744866,0.747674,0.750867,0.759345,0.758589,0.765490,0.764786,0.772263,0.776306,0.772252,0.777360,0.783966,0.782465,0.785388,0.794778,0.789866,0.795843,0.799842,0.800407,0.798103,0.803357,0.804270,0.802167,0.808220,0.807378,0.807590,0.810811,0.811321,0.814200,0.810108,0.810852,0.817588,0.813542,0.811082,0.815253,0.813891,0.811231,0.805958,0.810460,0.809767,0.801041,0.807030,0.806668,0.798466,0.796677,0.795984,0.787871,0.786690,0.784924,0.785364,0.784347,0.775787,0.771037,0.765974,0.762478,0.755039,0.752056,0.750634,0.748279,0.741721,0.733773,0.729702,0.720670,0.720960,0.713948,0.706428,0.698019,0.693164,0.687512,0.677170,0.674346,0.672239,0.661752,0.661046,0.652596,0.642432,0.638090,0.635462,0.627855,0.621480,0.619725,0.610713,0.605824,0.597087,0.594285,0.594739,0.586848,0.582803,0.573014,0.575664,0.566982
0.545566,0.551421,0.553617,0.555201,0.560838,0.561378,0.568606,0.569867,0.572164,0.576714,0.575579,0.582198,0.588588,0.592498,0.593662,0.597827,0.599248,0.608569,0.613314,0.616820,0.619798,0.626293,0.633131,0.631931,0.634186,0.638679,0.639837,0.644770,0.649069,0.651001,0.654921,0.653955,0.658190,0.662424,0.666177,0.663916,0.665202,0.661116,0.667352,0.667714,0.669983,0.670462,0.669217,0.669504,0.666410,0.666990,0.668833,0.667160,0.667841,0.665111,0.658846,0.668450,0.655025,0.659279,0.654025,0.650751,0.651281,0.648252,0.647936,0.646775,0.640794,0.640254,0.639723,0.636191,0.633519,0.632192,0.626526,0.628174,0.623528,0.627210,0.625332,0.625867,0.617587,0.619075,0.621629,0.618010,0.620348,0.622733,0.624789,0.621674,0.625363,0.627119,0.621560,0.627592,0.630146,0.633397,0.635536,0.638273,0.642218,0.641875,0.647604,0.653558,0.653052,0.658307,0.667471,0.669307,0.674325,0.681952,0.679602,0.686009,0.689590,0.695682,0.701923,0.708229,0.711124,0.714005,0.713716,0.724184,0.724588,0.732314,0.731847,0.736074,0.734376,0.742867,0.747945,0.751556,0.754000,0.757426,0.753950,0.759420,0.760712,0.764469,0.759770,0.765036,0.757691,0.763489,0.756256,0.758727,0.759376,0.758624,0.755042,0.759629,0.749680,0.746333,0.753361,0.748067,0.746605,0.735636,0.733958,0.736751,0.729972,0.726890,0.726173,0.724849,0.717854,0.715460,0.709682,0.703047,0.701324,0.700927,0.696107,0.689534,0.689010,0.682786,0.678933,0.673504,0.673623,0.663683,0.660526,0.656086,0.654043,0.647266,0.647871,0.645759,0.636974,0.634111,0.628477,0.625674,0.619199,0.617170,0.611579,0.611264,0.606374,0.600015,0.596961,0.600374,0.588765,0.588908,0.585762,0.577182,0.574207,0.569074,0.576087,0.561062,0.564428,0.560725,0.554482,0.555924,0.552629,0.553077,0.543933,0.543337,0.541731,0.534897,0.534664,0.532847,0.530020,0.527274,0.531816,0.525268
0.510591,0.512282,0.513954,0.512966,0.512619,0.514335,0.515428,0.520201,0.515137,0.514897,0.516389,0.523722,0.522910,0.523738,0.525793,0.529693,0.525933,0.530341,0.531265,0.535348,0.533217,0.538814,0.539970,0.539500,0.541259,0.545118,0.546990,0.549056,0.551819,0.555655,0.557610,0.560431,0.560576,0.563650,0.572271,0.570370,0.574630,0.581842,0.579581,0.581363,0.588627,0.593752,0.594031,0.596040,0.597094,0.608253,0.612854,0.617488,0.620354,0.622931,0.628090,0.634561,0.636410,0.642113,0.648185,0.648172,0.652301,0.661564,0.663902,0.668849,0.674375,0.680801,0.685283,0.690407,0.692929,0.699242,0.701374,0.705689,0.711009,0.719283,0.714366,0.716321,0.723794,0.729659,0.730956,0.736056,0.741090,0.747180,0.748258,0.749492,0.752062,0.757560,0.761935,0.758177,0.765961,0.772762,0.767969,0.771403,0.768707,0.776079,0.772111,0.777041,0.777243,0.781057,0.783420,0.779526,0.782924,0.777820,0.781540,0.780542,0.781438,0.783312,0.779347,0.785636,0.783770,0.779666,0.781063,0.781719,0.777748,0.777721,0.781650,0.777211,0.774248,0.776138,0.774489,0.773216,0.767457,0.768717,0.764230,0.766388,0.761083,0.763985,0.757536,0.751788,0.751416,0.746829,0.745392,0.741490,0.742189,0.740030,0.735003,0.729205,0.727415,0.726284,0.722024,0.720333,0.714189,0.707679,0.706128,0.709263,0.697760,0.696890,0.686805,0.689266,0.684083,0.679926,0.678236,0.673427,0.672206,0.668235,0.662798,0.657876,0.654361,0.648783,0.644619,0.635218,0.638471,0.641186,0.635663,0.624893,0.625301,0.621263,0.614061,0.613079,0.612790,0.607807,0.605171,0.601620,0.592511,0.595332,0.589386,0.587516,0.587595,0.583015,0.576722,0.571678,0.571416,0.565508,0.566130,0.560528,0.557746,0.553165,0.550024,0.550504,0.543510,0.546508,0.539544,0.536756,0.534106,0.532290,0.534159,0.527223,0.526390,0.525905,0.522093,0.517763,0.518928,0.515096,0.518462,0.514531
0.553409,0.557628,0.562983,0.570021,0.571348,0.580702,0.578683,0.587515,0.591416,0.597077,0.604098,0.604768,0.612085,0.614458,0.625050,0.630674,0.635277,0.644064,0.646352,0.655844,0.656263,0.664168,0.670315,0.671997,0.677872,0.680760,0.690213,0.697763,0.703193,0.707642,0.711341,0.715716,0.727678,0.724064,0.732023,0.736634,0.745461,0.747927,0.750913,0.756097,0.760799,0.762173,0.764399,0.771025,0.772417,0.774548,0.776996,0.780192,0.782524,0.783846,0.786537,0.786204,0.784040,0.793707,0.790040,0.789672,0.795826,0.795095,0.801436,0.798387,0.797780,0.797179,0.796766,0.797978,0.799033,0.805353,0.798250,0.796299,0.797442,0.800154,0.796977,0.789434,0.795624,0.790311,0.786864,0.789736,0.787155,0.786285,0.782738,0.785207,0.785501,0.779611,0.781383,0.774101,0.772466,0.766653,0.765617,0.765576,0.765725,0.760365,0.751391,0.750833,0.746080,0.741981,0.739281,0.741121,0.739339,0.735757,0.724974,0.725714,0.722783,0.713219,0.709280,0.704789,0.702149,0.698045,0.695777,0.689754,0.691716,0.689936,0.681653,0.677975,0.675307,0.669110,0.667715,0.660178,0.660349,0.653322,0.650636,0.647813,0.645939,0.643813,0.640149,0.635899,0.627150,0.629252,0.621718,0.622960,0.616499,0.616014,0.612518,0.613573,0.608616,0.601908,0.599291,0.594651,0.594964,0.586577,0.587618,0.580461,0.581285,0.578550,0.572463,0.571424,0.569711,0.566303,0.569342,0.562511,0.557211,0.556287,0.554604,0.555622,0.549927,0.552610,0.551340,0.547122,0.541376,0.540508,0.537075,0.539996,0.534518,0.536468,0.537127,0.532744,0.529972,0.529845,0.528910,0.527646,0.522861,0.524272,0.522023,0.523269,0.522135,0.517089,0.517712,0.519501,0.515797,0.518743,0.518163,0.513192,0.518194,0.513347,0.511787,0.508480,0.511749,0.509167,0.510987,0.511734,0.510769,0.504597,0.508803,0.507605,0.509384,0.506240,0.504824,0.506664,0.499741,0.500492,0.506501,0.505183
0.549596,0.554948,0.559778,0.567233,0.560628,0.574474,0.572503,0.579567,0.584833,0.583609,0.589204,0.589840,0.600672,0.608115,0.606146,0.613011,0.614546,0.623263,0.625922,0.632073,0.633604,0.639663,0.643085,0.644988,0.652638,0.658421,0.664396,0.665316,0.666953,0.671232,0.678374,0.679648,0.685743,0.681584,0.685118,0.685312,0.690077,0.690495,0.690574,0.692096,0.689158,0.693442,0.696705,0.692680,0.692035,0.692626,0.689384,0.689731,0.685268,0.685710,0.682875,0.686254,0.685522,0.682801,0.674584,0.675608,0.673260,0.672069,0.664566,0.664537,0.661022,0.654862,0.656581,0.652517,0.652529,0.648958,0.642737,0.641154,0.643778,0.637942,0.643022,0.636100,0.639346,0.640343,0.636029,0.635311,0.637562,0.641671,0.634837,0.634204,0.634071,0.642367,0.633213,0.640799,0.643595,0.644593,0.649474,0.649388,0.650084,0.656797,0.658475,0.662968,0.661612,0.672236,0.670987,0.680054,0.684470,0.689788,0.689950,0.692643,0.700171,0.700450,0.704145,0.711220,0.716936,0.720041,0.722505,0.728534,0.737514,0.733497,0.735104,0.736991,0.744736,0.740784,0.745184,0.754102,0.746180,0.745012,0.751881,0.755531,0.754002,0.755951,0.753683,0.754789,0.757686,0.756012,0.753001,0.751084,0.745108,0.746446,0.745087,0.740191,0.735360,0.736576,0.734511,0.728449,0.724454,0.719920,0.712302,0.709981,0.709268,0.707646,0.700263,0.697509,0.691983,0.684394,0.683997,0.679805,0.675834,0.670196,0.661633,0.657531,0.653073,0.649027,0.644173,0.638610,0.634310,0.628526,0.632616,0.626220,0.618877,0.613276,0.611471,0.610558,0.605529,0.602925,0.594846,0.591365,0.587322,0.584622,0.582253,0.579560,0.575906,0.571542,0.565245,0.565705,0.565425,0.553382,0.554228,0.554438,0.552807,0.551589,0.545482,0.546658,0.540865,0.537097,0.540146,0.537533,0.530675,0.527841,0.529173,0.530043,0.522325,0.520175,0.518954,0.521627,0.522553,0.520188,0.515126,0.515095
0.536721,0.544758,0.547496,0.547627,0.553582,0.552332,0.555131,0.555986,0.560666,0.567559,0.568014,0.572792,0.573847,0.581489,0.582640,0.587235,0.591259,0.595296,0.601403,0.607510,0.609660,0.611737,0.612132,0.619032,0.622798,0.626648,0.632687,0.635561,0.635840,0.639315,0.645840,0.647044,0.647002,0.656817,0.657599,0.662560,0.665090,0.672097,0.673086,0.672267,0.676954,0.680549,0.685165,0.685633,0.690773,0.690635,0.694526,0.692983,0.695003,0.700741,0.698388,0.706555,0.704041,0.704310,0.707321,0.710813,0.712298,0.713187,0.710890,0.713178,0.718737,0.713099,0.717269,0.717943,0.719334,0.720151,0.725069,0.723106,0.720823,0.730000,0.728533,0.731524,0.734865,0.727925,0.732111,0.730657,0.731350,0.733292,0.734261,0.736621,0.737964,0.744905,0.740434,0.740959,0.742580,0.744911,0.744099,0.751845,0.751633,0.745859,0.753275,0.751699,0.751713,0.752486,0.754807,0.760093,0.761161,0.758382,0.759955,0.762047,0.758323,0.761638,0.768015,0.760280,0.763372,0.763279,0.763505,0.763131,0.759964,0.756927,0.763431,0.761609,0.759510,0.761240,0.753750,0.761874,0.753339,0.756469,0.750675,0.749695,0.747349,0.742327,0.739588,0.739530,0.735469,0.733441,0.726171,0.722217,0.716265,0.714283,0.710857,0.702520,0.702250,0.696214,0.691666,0.679394,0.685896,0.678321,0.672195,0.666723,0.657573,0.652912,0.646694,0.645374,0.639552,0.633973,0.626549,0.623808,0.616743,0.616708,0.607741,0.599075,0.594847,0.586159,0.588957,0.582272,0.586517,0.576611,0.572429,0.564548,0.565166,0.563299,0.555650,0.553900,0.545776,0.547243,0.544278,0.541438,0.541334,0.536363,0.530694,0.530970,0.529790,0.529323,0.525628,0.523849,0.518093,0.518981,0.518221,0.514606,0.512707,0.511648,0.509744,0.512173,0.510636,0.508383,0.505145,0.508117,0.505859,0.504707,0.503631,0.501511,0.501691,0.502276,0.501559,0.505507,0.505535,0.501292,0.499335,0.497685
0.508710,0.504612,0.510438,0.511184,0.508489,0.513751,0.513227,0.512350,0.509856,0.514775,0.512927,0.514812,0.518996,0.518420,0.518344,0.518245,0.518187,0.521407,0.521174,0.529193,0.525211,0.525570,0.528978,0.532401,0.532589,0.531520,0.536117,0.529817,0.536533,0.530783,0.537236,0.534754,0.542387,0.537795,0.542356,0.545299,0.545734,0.546382,0.546924,0.552729,0.550454,0.552992,0.561555,0.560263,0.565246,0.562996,0.566662,0.567246,0.568136,0.569488,0.575483,0.574560,0.581019,0.583510,0.580965,0.585008,0.589492,0.595629,0.595680,0.597061,0.605046,0.604660,0.603150,0.614695,0.610058,0.616965,0.623135,0.625677,0.635250,0.635966,0.642194,0.642077,0.650232,0.655692,0.658741,0.661601,0.671936,0.680085,0.677948,0.686044,0.693170,0.702688,0.708618,0.708143,0.713498,0.728973,0.727524,0.733578,0.743236,0.753100,0.753781,0.758972,0.767819,0.780333,0.787082,0.789374,0.792748,0.804206,0.806472,0.823233,0.823538,0.830427,0.832268,0.839709,0.844321,0.851813,0.855854,0.863195,0.863387,0.864199,0.866810,0.877345,0.876749,0.879310,0.884644,0.886682,0.883260,0.883519,0.885826,0.883139,0.880218,0.882862,0.881885,0.878116,0.877929,0.871748,0.875217,0.863706,0.864136,0.857393,0.847473,0.840615,0.841255,0.832588,0.826557,0.815814,0.808034,0.805246,0.797694,0.792148,0.782503,0.773410,0.769957,0.757479,0.755056,0.742801,0.740574,0.732329,0.718763,0.714707,0.705179,0.698392,0.686563,0.681808,0.674431,0.669464,0.657601,0.652029,0.645173,0.638160,0.635904,0.627536,0.627679,0.615898,0.615517,0.606392,0.598241,0.596788,0.591856,0.583249,0.579009,0.574264,0.571018,0.569512,0.564068,0.562604,0.555281,0.560284,0.555109,0.550446,0.550836,0.548602,0.541288,0.537970,0.535577,0.535322,0.538199,0.531737,0.523980,0.531106,0.527678,0.525217,0.521728,0.521614,0.526087,0.520438,0.516565,0.517733,0.513163,0.517168
0.546329,0.544473,0.550411,0.557698,0.554353,0.553987,0.560710,0.560726,0.566860,0.574217,0.573548,0.581032,0.588782,0.588836,0.593404,0.596284,0.600001,0.610740,0.609639,0.614990,0.618437,0.629249,0.627035,0.635190,0.639454,0.641918,0.645524,0.652040,0.657073,0.657383,0.665176,0.665865,0.673534,0.675098,0.678311,0.684300,0.690345,0.693923,0.695694,0.705483,0.704024,0.706789,0.714779,0.718191,0.722073,0.722099,0.722085,0.727211,0.731580,0.735165,0.738938,0.740291,0.740522,0.748646,0.747222,0.745645,0.749524,0.756466,0.759514,0.759069,0.756891,0.759303,0.762859,0.765814,0.767338,0.765381,0.766363,0.769784,0.775072,0.777991,0.772926,0.776612,0.775873,0.773108,0.772739,0.775678,0.772932,0.772364,0.778873,0.775540,0.772846,0.767898,0.771474,0.770805,0.769435,0.768227,0.766776,0.762883,0.759757,0.764293,0.754426,0.753373,0.753580,0.752807,0.748821,0.744091,0.745079,0.743088,0.738106,0.732643,0.736708,0.731079,0.732109,0.725359,0.727416,0.719592,0.716442,0.711630,0.713464,0.707372,0.703738,0.703154,0.697158,0.697586,0.694301,0.685135,0.684024,0.686137,0.683274,0.678730,0.674244,0.674015,0.673454,0.666441,0.663763,0.660577,0.663901,0.658382,0.657188,0.651221,0.648221,0.648313,0.641913,0.639818,0.640626,0.637828,0.636071,0.632579,0.627070,0.623393,0.622713,0.622734,0.622320,0.616773,0.617919,0.616484,0.614438,0.608037,0.607959,0.602345,0.604975,0.602439,0.602169,0.595170,0.594444,0.587756,0.591780,0.595968,0.586524,0.586917,0.583546,0.581320,0.575816,0.586350,0.575335,0.573730,0.573231,0.567468,0.564660,0.568962,0.563249,0.560128,0.559473,0.562416,0.560881,0.559705,0.550540,0.547742,0.552980,0.549315,0.544854,0.544531,0.542247,0.544507,0.539867,0.543283,0.535892,0.535137,0.535875,0.532229,0.532335,0.534956,0.526748,0.529075,0.528412,0.522307,0.520414,0.523605,0.518690,0.519097
0.520730,0.519718,0.521603,0.525255,0.530526,0.526259,0.532167,0.534427,0.534055,0.539966,0.540395,0.539935,0.544740,0.552225,0.551623,0.555085,0.558317,0.562796,0.559283,0.564841,0.564915,0.571839,0.574005,0.580869,0.584071,0.587786,0.580765,0.588896,0.596540,0.598742,0.605690,0.604943,0.610967,0.615039,0.620968,0.628454,0.627867,0.637201,0.641967,0.646255,0.654940,0.658159,0.662942,0.667882,0.674873,0.681987,0.684119,0.688961,0.701395,0.700875,0.705710,0.715382,0.727059,0.729881,0.733626,0.740661,0.744915,0.748634,0.757043,0.761533,0.765548,0.775690,0.781475,0.783233,0.790223,0.795206,0.805545,0.800594,0.809124,0.810813,0.815238,0.817008,0.822636,0.824995,0.827074,0.831890,0.834373,0.831380,0.830456,0.834454,0.830828,0.831678,0.830148,0.832989,0.833147,0.828796,0.830654,0.826330,0.826077,0.819290,0.817314,0.815176,0.811385,0.806744,0.807456,0.802048,0.795239,0.789212,0.789851,0.784699,0.778574,0.773555,0.769042,0.761832,0.754179,0.755583,0.749872,0.748024,0.741287,0.732966,0.731544,0.723824,0.719036,0.715807,0.710657,0.704856,0.701945,0.696402,0.688252,0.685783,0.680338,0.678626,0.676092,0.666984,0.667791,0.659325,0.658173,0.653877,0.647865,0.647654,0.644820,0.640761,0.639863,0.635659,0.638431,0.628774,0.628109,0.626531,0.623497,0.619508,0.617440,0.616554,0.612348,0.611148,0.611313,0.605908,0.603009,0.601433,0.604527,0.597598,0.596275,0.595356,0.590580,0.596836,0.589533,0.591007,0.586274,0.586945,0.587427,0.587035,0.577424,0.580759,0.576924,0.577117,0.577010,0.574178,0.570908,0.568262,0.564960,0.567442,0.563739,0.561463,0.564411,0.559610,0.554170,0.558055,0.553598,0.553510,0.552895,0.551369,0.548426,0.544500,0.539901,0.539005,0.539946,0.537414,0.537240,0.532830,0.535612,0.528870,0.532878,0.531415,0.528877,0.522319,0.524257,0.523327,0.525303,0.520288,0.521378,0.517918
0.549871,0.549304,0.557540,0.558382,0.562949,0.566904,0.568880,0.576933,0.580946,0.582109,0.583973,0.596010,0.598631,0.594162,0.601144,0.608006,0.612142,0.614799,0.626330,0.626968,0.627768,0.636682,0.637089,0.646888,0.641766,0.658021,0.656891,0.659566,0.663195,0.664611,0.670264,0.675002,0.674961,0.678045,0.679423,0.681754,0.681660,0.688023,0.686066,0.688063,0.695538,0.689866,0.696424,0.689672,0.692875,0.697639,0.694484,0.693250,0.695448,0.691133,0.694945,0.692337,0.690492,0.685937,0.690089,0.682065,0.684593,0.674811,0.676000,0.672915,0.671809,0.668140,0.665135,0.665319,0.661880,0.659319,0.651572,0.648080,0.651251,0.645205,0.643509,0.642816,0.637774,0.635757,0.634943,0.630151,0.625909,0.627602,0.628638,0.629334,0.620490,0.619203,0.617463,0.616954,0.615560,0.611567,0.613354,0.607706,0.611148,0.607801,0.607503,0.603200,0.605937,0.601054,0.600240,0.603907,0.598996,0.600692,0.604411,0.601491,0.603135,0.602693,0.604318,0.602564,0.605335,0.604190,0.604365,0.608251,0.607179,0.604045,0.608612,0.607107,0.612500,0.613001,0.616956,0.615918,0.617756,0.623392,0.625141,0.629141,0.631711,0.630122,0.636846,0.638362,0.641782,0.647117,0.649376,0.655380,0.656517,0.657136,0.665116,0.671162,0.669183,0.671191,0.679202,0.680018,0.684447,0.683825,0.690983,0.694754,0.697735,0.699905,0.705490,0.709159,0.714056,0.717306,0.718100,0.716505,0.721778,0.724905,0.726433,0.727370,0.729164,0.726447,0.727547,0.730176,0.725492,0.733221,0.728926,0.731054,0.729084,0.725882,0.724327,0.725000,0.725359,0.720293,0.707844,0.712854,0.708996,0.707199,0.706439,0.700484,0.696407,0.689420,0.685832,0.679272,0.673108,0.668092,0.664895,0.660853,0.653545,0.650930,0.641957,0.635552,0.634281,0.625948,0.621795,0.614432,0.609386,0.605905,0.599999,0.595353,0.586499,0.584003,0.581751,0.574481,0.569820,0.567129,0.561458,0.561898
