1100;1105;1110;1115;1120;1125;1130;1135;1140;1145;1150;1155;1160;1165;1170;1175;1180;1185;1190;1195;1200;1205;1210;1215;1220;1225;1230;1235;1240;1245;1250;1255;1260;1265;1270;1275;1280;1285;1290;1295;1301;1306;1311;1316;1321;1326;1331;1336;1341;1346;1351;1356;1361;1366;1371;1376;1381;1386;1391;1396;1401;1406;1411;1416;1421;1426;1431;1436;1441;1446;1451;1456;1461;1466;1471;1476;1481;1486;1491;1496;1502;1507;1512;1517;1522;1527;1532;1537;1542;1547;1552;1557;1562;1567;1572;1577;1582;1587;1592;1597;1602;1607;1612;1617;1622;1627;1632;1637;1642;1647;1652;1657;1662;1667;1672;1677;1682;1687;1692;1697;1703;1708;1713;1718;1723;1728;1733;1738;1743;1748;1753;1758;1763;1768;1773;1778;1783;1788;1793;1798;1803;1808;1813;1818;1823;1828;1833;1838;1843;1848;1853;1858;1863;1868;1873;1878;1883;1888;1893;1898;1904;1909;1914;1919;1924;1929;1934;1939;1944;1949;1954;1959;1964;1969;1974;1979;1984;1989;1994;1999;2004;2009;2014;2019;2024;2029;2034;2039;2044;2049;2054;2059;2064;2069;2074;2079;2084;2089;2094;2100
0.535776;0.534544;0.544116;0.541392;0.542785;0.544859;0.543359;0.551779;0.561212;0.552095;0.563781;0.561018;0.572054;0.574061;0.571670;0.573861;0.580245;0.589668;0.587072;0.589349;0.597798;0.597180;0.599898;0.602528;0.606222;0.611258;0.620063;0.620015;0.624423;0.628773;0.626763;0.628789;0.635140;0.634064;0.636600;0.640104;0.640371;0.646356;0.647292;0.648631;0.651177;0.652737;0.658600;0.655989;0.662037;0.657604;0.663278;0.662490;0.668952;0.663074;0.664710;0.671185;0.665984;0.669469;0.668140;0.671470;0.672909;0.672462;0.671146;0.671691;0.670627;0.674345;0.672763;0.670495;0.671517;0.676343;0.675927;0.677056;0.674782;0.677785;0.676493;0.679113;0.675285;0.674907;0.672338;0.675338;0.680723;0.677488;0.675625;0.683944;0.678393;0.676848;0.679048;0.678229;0.682595;0.680449;0.682290;0.684413;0.675958;0.688984;0.682233;0.684142;0.685220;0.689448;0.685791;0.690209;0.688200;0.690564;0.694908;0.697919;0.693115;0.693412;0.697345;0.697754;0.698666;0.695604;0.696949;0.698753;0.699809;0.700214;0.699888;0.704709;0.706807;0.703808;0.709279;0.700440;0.709633;0.709175;0.704708;0.710195;0.707097;0.712505;0.712284;0.709884;0.709817;0.707064;0.707163;0.706413;0.706506;0.708247;0.709137;0.708212;0.704351;0.702451;0.710507;0.702844;0.697613;0.703341;0.706154;0.697278;0.699691;0.701136;0.700743;0.699018;0.694705;0.697011;0.694436;0.693961;0.691397;0.686138;0.688633;0.683885;0.682831;0.683940;0.679191;0.673628;0.670165;0.676368;0.674552;0.668486;0.665055;0.662639;0.659852;0.656701;0.650820;0.650745;0.651341;0.642706;0.640817;0.635745;0.635149;0.628044;0.626212;0.622056;0.620879;0.614817;0.609834;0.608323;0.602755;0.600132;0.590208;0.592609;0.590183;0.586607;0.581938;0.578803;0.573663;0.566897;0.563691;0.563653;0.556301;0.561908;0.550200;0.552652;0.547044;0.541962;0.543329;0.538630;0.538867;0.533523
0.529054;0.528814;0.536568;0.534465;0.538817;0.536703;0.544315;0.549372;0.551640;0.548979;0.552747;0.555581;0.561078;0.562966;0.563327;0.570449;0.568975;0.573284;0.586769;0.583910;0.588492;0.590530;0.593097;0.602486;0.605959;0.609458;0.610913;0.618016;0.617449;0.624526;0.633909;0.634635;0.643332;0.648982;0.649603;0.657088;0.658585;0.667373;0.670819;0.681526;0.681006;0.690586;0.687708;0.699082;0.703330;0.711251;0.718042;0.721476;0.729530;0.734905;0.738203;0.743704;0.748712;0.752653;0.762540;0.765045;0.773883;0.784301;0.779275;0.787900;0.794186;0.795483;0.801930;0.812150;0.809357;0.814886;0.821756;0.823091;0.827522;0.834954;0.841056;0.834980;0.839886;0.838634;0.843834;0.844655;0.846549;0.846011;0.849925;0.847049;0.851728;0.848937;0.845854;0.847384;0.842094;0.843802;0.839896;0.836180;0.836123;0.834051;0.825217;0.825837;0.815791;0.814459;0.810941;0.807276;0.798090;0.799399;0.786763;0.785278;0.779053;0.776286;0.773098;0.766965;0.760062;0.750824;0.750252;0.744226;0.734372;0.727748;0.721232;0.721036;0.712051;0.710362;0.707708;0.694917;0.692795;0.683644;0.679708;0.670742;0.669242;0.671161;0.664366;0.660436;0.653157;0.647618;0.647087;0.640968;0.636355;0.630530;0.629540;0.628658;0.622642;0.617720;0.612614;0.611242;0.611050;0.605387;0.607164;0.598201;0.601471;0.600325;0.590930;0.585610;0.587401;0.584521;0.583760;0.587772;0.579704;0.574847;0.571978;0.570910;0.572572;0.566051;0.564242;0.567501;0.562350;0.559057;0.559479;0.560867;0.556437;0.552290;0.553457;0.557526;0.550421;0.548920;0.550475;0.544348;0.543199;0.543772;0.542313;0.544360;0.541538;0.539210;0.540713;0.536356;0.537769;0.537291;0.534561;0.534068;0.531193;0.530819;0.527356;0.529813;0.529417;0.522845;0.526424;0.527790;0.524933;0.524529;0.523157;0.521541;0.520664;0.518588;0.520012;0.522945;0.520437;0.518120;0.512374;0.515756
0.521672;0.525470;0.526732;0.529105;0.527671;0.526123;0.528541;0.531489;0.538235;0.540201;0.535756;0.544090;0.544662;0.541476;0.547104;0.550835;0.548232;0.547950;0.553296;0.554045;0.558771;0.562592;0.564234;0.562332;0.568437;0.570466;0.574664;0.575618;0.578484;0.579342;0.580440;0.581831;0.582382;0.588607;0.587686;0.593454;0.589825;0.595955;0.596361;0.595247;0.593981;0.598544;0.600921;0.600315;0.603677;0.601754;0.605676;0.601539;0.600670;0.603070;0.604699;0.605704;0.609293;0.607832;0.606365;0.605803;0.607322;0.608363;0.610398;0.607925;0.611270;0.606644;0.613469;0.610652;0.608199;0.609855;0.606368;0.610877;0.606081;0.609833;0.605280;0.612475;0.609173;0.610432;0.611014;0.614062;0.607863;0.607064;0.610859;0.610729;0.608547;0.607407;0.609647;0.608939;0.612665;0.605759;0.612020;0.613076;0.611529;0.610563;0.610950;0.610362;0.610898;0.616772;0.616820;0.614666;0.617683;0.617880;0.616163;0.617847;0.617385;0.618948;0.622700;0.621891;0.630860;0.625337;0.624285;0.632169;0.630867;0.637207;0.636689;0.644451;0.638891;0.648525;0.648130;0.648596;0.658025;0.657334;0.664915;0.666988;0.671151;0.673537;0.674533;0.683996;0.685407;0.686186;0.695180;0.701090;0.706895;0.708161;0.714462;0.720078;0.729223;0.730065;0.732104;0.738494;0.742884;0.751424;0.753157;0.763871;0.765847;0.772299;0.773961;0.778296;0.783694;0.788649;0.788479;0.796097;0.797758;0.801148;0.803127;0.800222;0.807075;0.809476;0.807104;0.806744;0.809613;0.807596;0.806609;0.808464;0.806105;0.802983;0.802167;0.800023;0.797883;0.788813;0.785521;0.787259;0.781154;0.778176;0.769421;0.766417;0.758358;0.753572;0.748234;0.741803;0.732259;0.731265;0.723797;0.717848;0.707603;0.697794;0.692687;0.681687;0.677921;0.671538;0.660959;0.654811;0.650698;0.640279;0.637959;0.628837;0.619565;0.617087;0.605956;0.605025;0.597078;0.584584;0.584170;0.578165
0.507382;0.505973;0.510684;0.509823;0.513575;0.508574;0.509475;0.512113;0.519601;0.514076;0.515348;0.516826;0.515599;0.520345;0.520942;0.520289;0.524722;0.522562;0.526646;0.525347;0.530808;0.532068;0.534392;0.539879;0.539450;0.544494;0.547359;0.545896;0.553002;0.548707;0.555961;0.560610;0.564150;0.568722;0.571717;0.572461;0.579942;0.588303;0.591153;0.596317;0.603611;0.607618;0.611119;0.620752;0.624572;0.632305;0.638448;0.641976;0.654443;0.654507;0.664605;0.672529;0.675791;0.686258;0.691563;0.701711;0.708738;0.714708;0.719542;0.727298;0.734659;0.741309;0.749071;0.753917;0.762892;0.768001;0.778897;0.783390;0.789485;0.791810;0.798788;0.802849;0.804555;0.809743;0.815038;0.821062;0.826936;0.826917;0.830505;0.832807;0.837184;0.837813;0.834166;0.841727;0.839536;0.839578;0.840706;0.843818;0.842437;0.839896;0.833726;0.836376;0.838302;0.836933;0.828970;0.824337;0.824962;0.822750;0.813005;0.817659;0.810648;0.808914;0.807864;0.802535;0.792659;0.795482;0.783760;0.782566;0.779255;0.777000;0.772800;0.765592;0.755666;0.757066;0.752124;0.746989;0.739842;0.738432;0.734153;0.734178;0.722322;0.723694;0.717358;0.712901;0.707931;0.704394;0.699937;0.698911;0.688518;0.693136;0.685570;0.682904;0.679013;0.673176;0.670666;0.665177;0.658126;0.662973;0.656941;0.656922;0.650436;0.643452;0.638409;0.640125;0.635086;0.631673;0.631772;0.630134;0.626204;0.621802;0.621266;0.618235;0.611755;0.612042;0.611174;0.600756;0.603692;0.603357;0.596260;0.590612;0.591157;0.587412;0.583652;0.587317;0.580026;0.574012;0.579166;0.574254;0.566459;0.567159;0.566451;0.564662;0.563899;0.558790;0.557522;0.551209;0.553245;0.547899;0.550615;0.546913;0.547983;0.540601;0.538651;0.541426;0.538702;0.535105;0.532532;0.535867;0.522742;0.531075;0.526546;0.525775;0.523023;0.524603;0.520525;0.520538;0.514586;0.510918;0.515229;0.514010
0.556474;0.563892;0.566718;0.568902;0.575391;0.578346;0.588489;0.587541;0.596327;0.601893;0.608933;0.604208;0.616467;0.621510;0.628698;0.632992;0.639542;0.641402;0.651699;0.651088;0.663758;0.666061;0.672916;0.680137;0.685798;0.693786;0.700438;0.705196;0.706347;0.717422;0.722715;0.729258;0.732524;0.737436;0.744141;0.744820;0.752972;0.760934;0.763485;0.766730;0.771731;0.778345;0.780515;0.787378;0.787857;0.791837;0.799821;0.799057;0.805579;0.806378;0.809738;0.819232;0.818171;0.817290;0.819357;0.822334;0.824485;0.828450;0.828086;0.831761;0.831598;0.833197;0.831786;0.830886;0.829298;0.835168;0.832287;0.834307;0.832161;0.831638;0.834682;0.825649;0.832498;0.825110;0.831360;0.823968;0.820427;0.816536;0.812895;0.810343;0.810636;0.805128;0.803223;0.799256;0.793812;0.793293;0.783347;0.778232;0.775028;0.766539;0.760159;0.755526;0.749214;0.747392;0.734883;0.732870;0.725407;0.713208;0.715800;0.708606;0.701341;0.696887;0.687089;0.682636;0.678609;0.669793;0.665661;0.656935;0.652008;0.646612;0.639737;0.632499;0.627217;0.623847;0.614044;0.612053;0.609530;0.604764;0.600314;0.588211;0.593346;0.587093;0.585496;0.583407;0.580234;0.579710;0.572827;0.572593;0.564776;0.569626;0.564339;0.561270;0.560966;0.558036;0.561035;0.558032;0.556481;0.558940;0.558159;0.557549;0.557540;0.559151;0.549144;0.558568;0.553789;0.548847;0.552272;0.549297;0.555421;0.553890;0.554503;0.553224;0.553030;0.556326;0.556252;0.555226;0.549654;0.550228;0.551859;0.547640;0.548588;0.547501;0.552544;0.547130;0.547000;0.551870;0.546962;0.545339;0.545942;0.547028;0.541630;0.542075;0.545378;0.539681;0.540752;0.538969;0.542156;0.540653;0.538181;0.538470;0.532480;0.536634;0.537968;0.531304;0.536262;0.531886;0.533262;0.531136;0.527549;0.529322;0.525165;0.525595;0.528197;0.518480;0.521714;0.524338;0.517500;0.522774;0.521696;0.517916
0.508966;0.507631;0.505931;0.504538;0.508406;0.516587;0.509363;0.517211;0.516643;0.516700;0.512866;0.512476;0.515455;0.519706;0.523362;0.525936;0.528644;0.528885;0.528481;0.529896;0.535573;0.539937;0.539838;0.540195;0.546266;0.550672;0.555072;0.556477;0.562395;0.561625;0.568485;0.572046;0.579588;0.579717;0.588967;0.590842;0.597888;0.604491;0.607207;0.610375;0.618711;0.624942;0.629285;0.635056;0.647506;0.654314;0.656632;0.661064;0.675653;0.686382;0.688777;0.695561;0.702738;0.710498;0.716465;0.727203;0.734745;0.742054;0.751244;0.758263;0.767943;0.773013;0.783500;0.789719;0.796579;0.800934;0.808917;0.812286;0.812620;0.826674;0.832204;0.831365;0.837587;0.839272;0.845366;0.846986;0.843316;0.855561;0.852852;0.852373;0.850161;0.856402;0.846974;0.846136;0.843861;0.848419;0.838516;0.840580;0.832845;0.827423;0.826271;0.823084;0.813635;0.809327;0.801380;0.797344;0.790195;0.779987;0.777638;0.766982;0.762357;0.754100;0.749852;0.742143;0.737398;0.727807;0.725173;0.709175;0.707336;0.701803;0.695952;0.688296;0.680817;0.673772;0.670023;0.669134;0.661588;0.657105;0.656572;0.644894;0.645325;0.641463;0.633825;0.631271;0.634506;0.633080;0.628979;0.629765;0.622535;0.622517;0.622110;0.624403;0.622166;0.618688;0.620720;0.624822;0.620086;0.621115;0.622304;0.620491;0.620834;0.630486;0.627525;0.623314;0.628759;0.624169;0.628317;0.628334;0.636758;0.638828;0.641228;0.639848;0.631933;0.637891;0.640984;0.643468;0.639159;0.636645;0.644459;0.641757;0.644222;0.639764;0.637306;0.634744;0.637490;0.632856;0.636647;0.627887;0.625876;0.621701;0.626290;0.621005;0.619179;0.618562;0.618289;0.609949;0.609720;0.608161;0.605534;0.598986;0.593984;0.594297;0.594875;0.585124;0.586483;0.581535;0.581958;0.575163;0.572346;0.568338;0.567012;0.563566;0.564249;0.554374;0.555426;0.552251;0.554086;0.546227;0.545713;0.544774
0.545147;0.553873;0.554159;0.555240;0.564791;0.567963;0.571087;0.575768;0.576906;0.585866;0.586936;0.592442;0.594331;0.600009;0.608522;0.609529;0.612807;0.617814;0.623906;0.627107;0.630676;0.636199;0.644921;0.647788;0.648226;0.654336;0.662841;0.666992;0.666967;0.674702;0.678380;0.679181;0.686632;0.688248;0.686987;0.698554;0.699068;0.699928;0.708299;0.708685;0.711268;0.710131;0.712313;0.710064;0.721141;0.714680;0.720034;0.718397;0.725519;0.720472;0.719164;0.727418;0.726350;0.724950;0.728844;0.722985;0.725384;0.729686;0.724987;0.727860;0.722953;0.730748;0.723133;0.722960;0.721642;0.725944;0.722316;0.721441;0.722172;0.717812;0.715915;0.717796;0.718394;0.714056;0.717165;0.714562;0.709806;0.717615;0.713523;0.712426;0.714851;0.710278;0.715303;0.710010;0.708389;0.709320;0.705380;0.701888;0.706853;0.703454;0.702146;0.702983;0.702320;0.703803;0.704733;0.699259;0.701123;0.700576;0.698552;0.696950;0.698768;0.697488;0.696680;0.695665;0.691012;0.691309;0.694510;0.688803;0.689881;0.691303;0.689772;0.690178;0.688732;0.685007;0.684377;0.682415;0.680197;0.680344;0.680706;0.679818;0.678235;0.680731;0.673813;0.673747;0.674410;0.668510;0.671616;0.670876;0.667403;0.665255;0.662997;0.665691;0.658928;0.661084;0.658538;0.655026;0.653168;0.653626;0.654185;0.650042;0.647912;0.648369;0.644127;0.646036;0.638813;0.636755;0.637360;0.632802;0.629414;0.628082;0.624509;0.625427;0.619738;0.625486;0.614889;0.615998;0.613435;0.608976;0.608650;0.613889;0.607047;0.606401;0.595295;0.602079;0.596412;0.588474;0.589657;0.586758;0.589341;0.577393;0.583462;0.574274;0.576572;0.569800;0.569733;0.568582;0.567302;0.564750;0.561693;0.551547;0.553582;0.554287;0.550641;0.547421;0.545530;0.545955;0.541864;0.540526;0.534566;0.535522;0.533135;0.530099;0.533325;0.529778;0.526278;0.523499;0.519447;0.518590;0.517653;0.519516
0.571592;0.577099;0.582709;0.587779;0.592422;0.593147;0.597633;0.607877;0.606911;0.619201;0.622004;0.628521;0.630687;0.637547;0.643763;0.651953;0.663685;0.659351;0.670854;0.676178;0.683264;0.691100;0.693938;0.693369;0.706694;0.708434;0.714440;0.716090;0.720790;0.731388;0.733185;0.738277;0.743833;0.747102;0.749827;0.749113;0.756456;0.753623;0.756990;0.758463;0.760773;0.759371;0.757626;0.756834;0.758241;0.758886;0.754579;0.752070;0.753489;0.749906;0.750359;0.748937;0.745637;0.741259;0.736588;0.734566;0.731244;0.723435;0.720485;0.719955;0.714146;0.710005;0.708932;0.703656;0.700183;0.695663;0.691131;0.685706;0.678530;0.678713;0.678637;0.677034;0.670650;0.664154;0.662885;0.664945;0.661090;0.654480;0.655344;0.650199;0.652516;0.652224;0.644795;0.646907;0.649947;0.652738;0.647790;0.650595;0.650786;0.647263;0.649791;0.651958;0.651618;0.655982;0.656851;0.657966;0.661202;0.662859;0.663784;0.657618;0.666045;0.664551;0.666633;0.673169;0.668555;0.673851;0.673986;0.678311;0.674863;0.680695;0.679038;0.683162;0.681926;0.685102;0.681009;0.690755;0.691178;0.690395;0.686591;0.683852;0.689382;0.690222;0.688353;0.690921;0.688747;0.686472;0.689540;0.678848;0.686040;0.679171;0.680573;0.678393;0.674709;0.673418;0.672495;0.670505;0.669338;0.670153;0.662860;0.662489;0.657950;0.653005;0.652752;0.650772;0.650824;0.647634;0.639198;0.638427;0.638623;0.632041;0.627914;0.627714;0.623716;0.616701;0.613552;0.615696;0.610768;0.608954;0.608327;0.599382;0.598574;0.594342;0.594590;0.589027;0.584423;0.580789;0.580443;0.577852;0.573567;0.577545;0.569199;0.566333;0.569358;0.562927;0.561592;0.557622;0.561363;0.551938;0.553231;0.552990;0.547552;0.544758;0.544620;0.544922;0.541297;0.539849;0.538677;0.538714;0.532280;0.534380;0.530161;0.526600;0.524446;0.526853;0.529624;0.526027;0.524236;0.518110;0.517848;0.523882
0.526942;0.534066;0.539334;0.534467;0.536029;0.537168;0.542242;0.543991;0.548074;0.552080;0.553229;0.559236;0.562034;0.565496;0.567762;0.572228;0.577069;0.581436;0.584681;0.586965;0.590147;0.598432;0.602553;0.601052;0.606678;0.609352;0.613496;0.618646;0.625294;0.627203;0.634630;0.634263;0.648066;0.647660;0.655028;0.665987;0.671202;0.673419;0.673215;0.685676;0.691567;0.696821;0.705505;0.709747;0.717254;0.720802;0.728713;0.734933;0.738286;0.745368;0.751131;0.758181;0.760946;0.768759;0.774046;0.784393;0.788547;0.799479;0.800425;0.807130;0.811114;0.820950;0.827930;0.831056;0.831907;0.838014;0.836034;0.847197;0.847965;0.851260;0.857569;0.859743;0.858705;0.865928;0.866573;0.870353;0.873493;0.869194;0.869381;0.872357;0.870091;0.872235;0.871116;0.866227;0.863290;0.861254;0.860415;0.856977;0.851133;0.849264;0.849051;0.841170;0.836186;0.836795;0.826810;0.818342;0.817898;0.813054;0.802260;0.801122;0.787943;0.786418;0.780269;0.773326;0.770799;0.757872;0.756656;0.744923;0.742720;0.735147;0.727991;0.717352;0.718014;0.706856;0.696359;0.695503;0.688991;0.682910;0.675880;0.674980;0.663507;0.656414;0.655262;0.650013;0.648125;0.637300;0.630317;0.625618;0.624280;0.619980;0.616881;0.610187;0.603373;0.598930;0.596433;0.591229;0.586572;0.585394;0.582594;0.575924;0.573544;0.568693;0.566230;0.564306;0.560219;0.561329;0.554032;0.552314;0.548393;0.541009;0.546630;0.540919;0.538991;0.540527;0.535407;0.531768;0.534694;0.527662;0.526779;0.527061;0.526046;0.521705;0.523698;0.520377;0.522934;0.513149;0.518453;0.514639;0.515640;0.513437;0.514226;0.513856;0.511064;0.509824;0.508510;0.509007;0.509041;0.508598;0.507898;0.508887;0.509272;0.505479;0.505877;0.504611;0.506477;0.503313;0.503717;0.499438;0.504166;0.508045;0.504489;0.501809;0.501784;0.501476;0.502716;0.499080;0.500125;0.504110;0.501148;0.502372
0.575287;0.581258;0.583422;0.590853;0.593578;0.605800;0.608323;0.609163;0.620486;0.626267;0.634212;0.639341;0.640195;0.655687;0.659072;0.666353;0.676650;0.681193;0.690182;0.699072;0.706705;0.711568;0.708911;0.726308;0.734882;0.735519;0.743667;0.750137;0.753662;0.762213;0.765543;0.775574;0.779830;0.782566;0.793115;0.793761;0.795985;0.802111;0.804086;0.810598;0.810962;0.817740;0.825173;0.823489;0.818992;0.824366;0.826911;0.830495;0.828144;0.826476;0.825782;0.828850;0.831296;0.828000;0.828373;0.824871;0.820908;0.826216;0.818240;0.817386;0.816128;0.809086;0.809436;0.804374;0.807284;0.801684;0.798983;0.794097;0.793406;0.794429;0.784541;0.782581;0.778214;0.775191;0.770807;0.770272;0.765321;0.759899;0.757680;0.755629;0.748739;0.746058;0.744143;0.735212;0.729043;0.725965;0.722681;0.721508;0.712934;0.710023;0.703654;0.701756;0.698187;0.690062;0.686918;0.682329;0.672579;0.671057;0.669332;0.661451;0.657056;0.652456;0.649496;0.645205;0.644954;0.636265;0.630485;0.626901;0.623914;0.617451;0.613391;0.611906;0.605604;0.607068;0.601959;0.594395;0.595983;0.594057;0.587816;0.586130;0.581154;0.577434;0.581334;0.572846;0.576263;0.576867;0.567563;0.565031;0.566315;0.559676;0.561058;0.561364;0.557158;0.558064;0.556547;0.555623;0.554120;0.555873;0.551826;0.552663;0.547747;0.549336;0.541657;0.546393;0.545726;0.549444;0.541777;0.545382;0.542383;0.538381;0.536901;0.538351;0.543760;0.539308;0.538887;0.537831;0.534738;0.540010;0.537496;0.532357;0.532199;0.533956;0.528582;0.533800;0.535596;0.529494;0.528594;0.530011;0.531973;0.525899;0.530956;0.517519;0.524517;0.522697;0.523368;0.518875;0.520503;0.517400;0.514542;0.520367;0.518039;0.519396;0.512916;0.509769;0.510838;0.518304;0.510625;0.511723;0.506895;0.505001;0.507190;0.506810;0.507240;0.502968;0.502972;0.503349;0.500503;0.500310;0.499423;0.504403
0.523482;0.528502;0.534147;0.529272;0.532321;0.539375;0.538618;0.541259;0.545096;0.547499;0.545494;0.552835;0.556410;0.557419;0.559551;0.559192;0.563154;0.565863;0.567188;0.571772;0.569183;0.570655;0.579757;0.580208;0.584539;0.582973;0.588367;0.592101;0.596447;0.595160;0.598719;0.600463;0.603281;0.602782;0.605599;0.608029;0.613888;0.615100;0.616670;0.613994;0.617825;0.616830;0.619618;0.624326;0.622435;0.629967;0.626374;0.624401;0.621844;0.632366;0.630647;0.630443;0.631626;0.628147;0.632631;0.629223;0.640740;0.637980;0.635144;0.636327;0.636685;0.644627;0.641916;0.642616;0.645415;0.643562;0.643427;0.650787;0.653622;0.652331;0.658446;0.656397;0.661446;0.658297;0.664407;0.671670;0.672673;0.680223;0.676326;0.685284;0.687013;0.692582;0.695657;0.701177;0.703028;0.706314;0.709917;0.720651;0.720305;0.730669;0.734207;0.737391;0.743882;0.750836;0.748959;0.757980;0.764153;0.768145;0.771464;0.781488;0.785783;0.788882;0.793886;0.800363;0.800660;0.808404;0.811476;0.814368;0.822639;0.827953;0.828173;0.832287;0.833407;0.831485;0.836391;0.839160;0.832258;0.842101;0.838310;0.836358;0.835259;0.834985;0.830360;0.828433;0.824729;0.826875;0.822763;0.823149;0.815798;0.812055;0.806140;0.800956;0.794821;0.790390;0.781311;0.775923;0.773261;0.762211;0.759127;0.752175;0.747314;0.736820;0.731746;0.725639;0.716198;0.708949;0.701754;0.694318;0.689812;0.680038;0.675514;0.666189;0.661530;0.657271;0.648548;0.640069;0.630807;0.627966;0.622101;0.613363;0.613176;0.608952;0.603127;0.593649;0.594126;0.586787;0.586000;0.581342;0.577636;0.569770;0.560148;0.554568;0.558628;0.558722;0.554809;0.552534;0.549764;0.546156;0.543078;0.543095;0.539630;0.534412;0.534326;0.532565;0.530409;0.531845;0.528067;0.528278;0.528840;0.525976;0.524808;0.524916;0.514191;0.516878;0.517054;0.518125;0.517496;0.516405;0.513610;0.509723
0.523080;0.527901;0.528666;0.525399;0.525903;0.532875;0.536029;0.532417;0.537824;0.546233;0.544475;0.546034;0.543717;0.551736;0.549027;0.548475;0.561994;0.560663;0.562170;0.564172;0.562811;0.573726;0.570414;0.576794;0.578267;0.577782;0.586301;0.581721;0.587285;0.590478;0.588490;0.597295;0.594051;0.600183;0.603581;0.597665;0.605812;0.607884;0.607417;0.606458;0.614011;0.620831;0.616717;0.620101;0.625011;0.619245;0.624267;0.623935;0.626956;0.627756;0.625982;0.628871;0.632894;0.629774;0.632719;0.634079;0.633260;0.639647;0.635745;0.633869;0.638419;0.638927;0.638386;0.639855;0.634159;0.640562;0.642433;0.647292;0.641187;0.642549;0.644971;0.641508;0.641991;0.634954;0.639364;0.638283;0.643477;0.638688;0.639393;0.642410;0.644538;0.640547;0.635615;0.643301;0.643218;0.638974;0.637543;0.634653;0.634492;0.637589;0.638078;0.633081;0.635858;0.631760;0.635039;0.631014;0.634125;0.634383;0.632770;0.639075;0.630774;0.634717;0.634144;0.633736;0.635681;0.632623;0.633167;0.634875;0.638023;0.640073;0.636310;0.641330;0.642696;0.644079;0.643310;0.643063;0.654291;0.648957;0.655401;0.654853;0.658652;0.660066;0.664034;0.668898;0.676196;0.676630;0.678148;0.681189;0.689869;0.691624;0.699150;0.705141;0.708809;0.710979;0.716076;0.723131;0.721535;0.732506;0.733682;0.733223;0.742583;0.741157;0.752921;0.750028;0.757196;0.763311;0.767587;0.765297;0.770203;0.774764;0.775674;0.781547;0.782598;0.781138;0.782417;0.780531;0.785146;0.784027;0.784581;0.777836;0.781321;0.783503;0.776660;0.768211;0.774375;0.769461;0.764342;0.762593;0.756551;0.754096;0.748973;0.742067;0.737699;0.734808;0.726587;0.724600;0.718957;0.712373;0.701865;0.694591;0.686889;0.683736;0.680567;0.670828;0.670145;0.660990;0.651120;0.640718;0.638084;0.635804;0.624330;0.620303;0.614029;0.611435;0.605078;0.590341;0.588335;0.591110;0.579250;0.576817
0.504503;0.505444;0.503716;0.508988;0.510640;0.509033;0.504306;0.508884;0.511480;0.509782;0.511713;0.514689;0.512513;0.514736;0.514579;0.520970;0.521440;0.512928;0.516494;0.518104;0.517716;0.518296;0.521745;0.519175;0.524868;0.519846;0.520571;0.522344;0.520884;0.524511;0.522607;0.524345;0.522725;0.525325;0.525440;0.527371;0.524464;0.526961;0.528366;0.529517;0.523638;0.531055;0.531879;0.531777;0.530411;0.533354;0.532365;0.535024;0.532280;0.537678;0.540495;0.536267;0.539889;0.538939;0.540297;0.542546;0.539559;0.541354;0.541265;0.543166;0.547652;0.542441;0.545308;0.544313;0.548749;0.548960;0.549719;0.557031;0.555951;0.558556;0.558635;0.560746;0.558453;0.567711;0.567868;0.568222;0.574848;0.577068;0.581020;0.586846;0.588217;0.589346;0.595486;0.600442;0.605847;0.606402;0.608541;0.614355;0.618762;0.625206;0.630638;0.633885;0.636362;0.647992;0.649122;0.655040;0.659983;0.667375;0.671170;0.677412;0.686288;0.687658;0.694252;0.702032;0.707913;0.707024;0.717855;0.715980;0.726916;0.730564;0.737614;0.741863;0.748910;0.750938;0.758614;0.758337;0.764204;0.763316;0.775109;0.778434;0.779293;0.782702;0.785609;0.794886;0.798858;0.800523;0.805981;0.806331;0.811103;0.808529;0.815922;0.817952;0.818322;0.821403;0.822597;0.826909;0.820101;0.826380;0.820575;0.829525;0.828291;0.826793;0.828890;0.829816;0.834720;0.829242;0.821294;0.828017;0.828898;0.825462;0.824489;0.823869;0.822274;0.818903;0.816650;0.815724;0.807104;0.808437;0.808104;0.800890;0.796924;0.793219;0.788197;0.783534;0.783899;0.778609;0.768290;0.761363;0.757727;0.750230;0.749080;0.741539;0.734174;0.726588;0.718761;0.715000;0.705815;0.697995;0.695236;0.693272;0.677804;0.673280;0.664057;0.660011;0.653167;0.642155;0.638954;0.631710;0.625475;0.624389;0.619617;0.608286;0.602802;0.595372;0.584679;0.585803;0.579338;0.577229;0.569999;0.566202
0.509488;0.507380;0.505622;0.505338;0.510026;0.509129;0.507368;0.507392;0.507071;0.504308;0.510907;0.512813;0.512872;0.511904;0.509952;0.518706;0.514663;0.519376;0.518700;0.512764;0.519844;0.517872;0.524639;0.521415;0.526084;0.525029;0.532426;0.532005;0.531850;0.532554;0.537104;0.532161;0.533978;0.542683;0.542510;0.549307;0.552787;0.548808;0.553097;0.556938;0.561283;0.561725;0.560724;0.569997;0.574518;0.568159;0.575202;0.574762;0.580374;0.588337;0.589001;0.594456;0.592713;0.602393;0.603578;0.606467;0.607911;0.611100;0.617322;0.625174;0.628911;0.623126;0.630868;0.636875;0.637766;0.638210;0.643999;0.643029;0.650356;0.649085;0.653406;0.651935;0.658219;0.658589;0.657565;0.662616;0.664976;0.664719;0.667884;0.665391;0.669052;0.669820;0.670916;0.670424;0.666972;0.666070;0.671788;0.669153;0.664571;0.663692;0.667497;0.662374;0.663879;0.660830;0.660109;0.655772;0.651842;0.653410;0.653499;0.656521;0.651892;0.650107;0.644548;0.647687;0.651227;0.645963;0.646156;0.644548;0.648054;0.642655;0.644158;0.648374;0.647599;0.648440;0.645317;0.647697;0.650767;0.658213;0.653187;0.655634;0.661218;0.662283;0.661626;0.666251;0.672639;0.676947;0.677436;0.681541;0.686011;0.691904;0.690081;0.700030;0.708996;0.711198;0.714793;0.722205;0.727393;0.730312;0.737681;0.745382;0.745360;0.753005;0.760482;0.767687;0.764672;0.773077;0.775044;0.776749;0.783783;0.786065;0.791706;0.791689;0.791772;0.795979;0.796364;0.799404;0.798227;0.802263;0.800318;0.799405;0.796642;0.798536;0.795923;0.792603;0.785096;0.785558;0.785965;0.779854;0.773806;0.771592;0.763553;0.763126;0.752679;0.749028;0.740914;0.735772;0.726511;0.724524;0.709838;0.710086;0.704856;0.697967;0.684600;0.681624;0.674149;0.665459;0.657937;0.652648;0.643432;0.639280;0.630492;0.625247;0.622322;0.613701;0.602100;0.599710;0.586974;0.586215;0.579893;0.575566
0.513519;0.514296;0.514387;0.515472;0.518837;0.517116;0.517025;0.522906;0.521646;0.524635;0.525242;0.525386;0.519219;0.527402;0.528062;0.527014;0.535346;0.532761;0.534880;0.534314;0.538258;0.539175;0.543258;0.545301;0.546666;0.548854;0.546796;0.550272;0.549840;0.553891;0.557702;0.557435;0.557422;0.563386;0.566279;0.561140;0.566717;0.570400;0.574807;0.579162;0.578351;0.581771;0.585065;0.583234;0.585748;0.585670;0.593003;0.598830;0.595718;0.600502;0.603902;0.605119;0.611505;0.615550;0.616077;0.617345;0.615909;0.623999;0.628279;0.629584;0.634127;0.637111;0.639593;0.641236;0.648199;0.643915;0.651281;0.660269;0.663160;0.667335;0.664389;0.668590;0.673387;0.682464;0.688454;0.686402;0.694667;0.695801;0.698749;0.708382;0.711292;0.712670;0.722599;0.723051;0.727847;0.726987;0.737850;0.745402;0.747247;0.753271;0.756315;0.761766;0.769326;0.771208;0.776798;0.780033;0.788177;0.790872;0.790679;0.795444;0.804165;0.805118;0.810635;0.808702;0.816362;0.819865;0.825261;0.825817;0.828246;0.827253;0.830836;0.834054;0.831882;0.838254;0.837689;0.838123;0.838492;0.836359;0.837963;0.837374;0.837862;0.832421;0.828155;0.830252;0.826987;0.825307;0.819490;0.813881;0.814420;0.808822;0.803377;0.800409;0.790721;0.782439;0.777285;0.773568;0.769641;0.757978;0.756760;0.752071;0.748334;0.734267;0.730253;0.724619;0.720388;0.712946;0.704297;0.696821;0.687980;0.686316;0.677726;0.677485;0.666829;0.655972;0.652206;0.651012;0.638434;0.632451;0.629556;0.625737;0.621412;0.615397;0.613010;0.604002;0.600736;0.599613;0.589810;0.584028;0.586231;0.580538;0.576380;0.574695;0.566222;0.562852;0.560505;0.557251;0.554810;0.548710;0.545718;0.543046;0.541425;0.539884;0.534341;0.535324;0.533868;0.531144;0.531512;0.526219;0.520577;0.520294;0.525733;0.519288;0.517793;0.520305;0.516018;0.510921;0.511335;0.513313;0.514764;0.510613
0.540427;0.541979;0.542677;0.550110;0.548079;0.551592;0.554957;0.556094;0.565452;0.571588;0.571623;0.570089;0.576698;0.583833;0.584159;0.583999;0.590891;0.601514;0.600005;0.605864;0.605843;0.612023;0.618216;0.621535;0.624882;0.630090;0.634394;0.638172;0.639450;0.640962;0.646949;0.654513;0.658024;0.662018;0.661684;0.664969;0.670779;0.674657;0.675031;0.680839;0.686157;0.682074;0.688944;0.688788;0.692656;0.694631;0.699721;0.702856;0.700770;0.710194;0.710709;0.715416;0.712296;0.715477;0.717070;0.720257;0.723203;0.718531;0.725921;0.726057;0.728860;0.727584;0.732152;0.731539;0.736262;0.733350;0.735367;0.736514;0.733441;0.735362;0.739769;0.740719;0.744476;0.742759;0.747782;0.746539;0.745973;0.749532;0.745777;0.747958;0.750919;0.754190;0.751075;0.757104;0.754079;0.754359;0.759328;0.758595;0.756039;0.761158;0.754858;0.757888;0.762715;0.756726;0.763633;0.758801;0.766732;0.759929;0.764295;0.764243;0.762284;0.758263;0.758856;0.763856;0.760443;0.763184;0.759903;0.757260;0.760472;0.756756;0.758698;0.751763;0.753085;0.754088;0.746369;0.748644;0.748953;0.742613;0.741150;0.739752;0.735255;0.731900;0.728906;0.727088;0.718047;0.721033;0.713735;0.708904;0.702967;0.701576;0.695885;0.697005;0.688055;0.683609;0.675949;0.674954;0.672256;0.661403;0.656946;0.650676;0.646139;0.643242;0.631885;0.632080;0.629070;0.625466;0.612176;0.611809;0.606732;0.600111;0.597804;0.590395;0.588552;0.585494;0.581393;0.578165;0.568282;0.570443;0.560270;0.565896;0.555293;0.552643;0.551953;0.543883;0.542006;0.542918;0.543317;0.535024;0.530888;0.525876;0.532642;0.521985;0.521221;0.523235;0.520998;0.517615;0.515415;0.517009;0.509289;0.514074;0.511749;0.505437;0.507317;0.506449;0.508760;0.502827;0.508775;0.500373;0.508863;0.507210;0.504618;0.504051;0.500478;0.497773;0.507365;0.498499;0.500256;0.500186;0.499671;0.499856
0.542855;0.544231;0.546616;0.547966;0.556176;0.555956;0.556851;0.569545;0.566886;0.571514;0.570069;0.579944;0.584219;0.586546;0.586574;0.592251;0.595255;0.601425;0.609008;0.607180;0.613532;0.612686;0.616983;0.625251;0.626556;0.631356;0.631380;0.637531;0.639883;0.649657;0.637429;0.648376;0.651458;0.652570;0.653993;0.661924;0.657739;0.665252;0.658399;0.666419;0.663338;0.668395;0.662223;0.666081;0.668657;0.669927;0.668008;0.668811;0.666815;0.666628;0.670206;0.666248;0.664482;0.669100;0.664462;0.660343;0.667720;0.656704;0.661409;0.658778;0.661292;0.656333;0.653814;0.653376;0.656668;0.653828;0.648854;0.650197;0.646898;0.649736;0.651081;0.650837;0.645606;0.645152;0.653287;0.655539;0.650662;0.650637;0.652032;0.651703;0.654433;0.655467;0.661273;0.662348;0.658915;0.666219;0.666933;0.668263;0.669577;0.673354;0.678126;0.678867;0.681274;0.689543;0.689817;0.695901;0.691586;0.707179;0.706207;0.708687;0.708091;0.717942;0.721828;0.718415;0.725642;0.730319;0.731868;0.733977;0.735491;0.740094;0.738475;0.751677;0.747538;0.754647;0.753503;0.751825;0.754679;0.757630;0.753373;0.755699;0.758096;0.758701;0.757021;0.756333;0.754045;0.753439;0.756780;0.752391;0.746881;0.745170;0.742001;0.738014;0.740751;0.733789;0.736723;0.730430;0.728292;0.727669;0.720948;0.719084;0.710714;0.708937;0.705036;0.704110;0.696848;0.694226;0.687350;0.679834;0.676014;0.672360;0.669476;0.662592;0.660348;0.658633;0.651022;0.645302;0.645582;0.641540;0.627750;0.633459;0.630729;0.628315;0.622946;0.615345;0.611848;0.608483;0.602682;0.601040;0.595424;0.595963;0.590666;0.584447;0.582349;0.582207;0.575169;0.571001;0.571413;0.572757;0.563248;0.558865;0.557134;0.554184;0.552977;0.546490;0.542273;0.543773;0.547424;0.543356;0.537965;0.537422;0.529458;0.537921;0.529065;0.528863;0.523594;0.524127;0.521177;0.519455;0.518172;0.515377
0.540799;0.546220;0.549716;0.548994;0.546126;0.551268;0.555336;0.558840;0.563324;0.568230;0.568568;0.571069;0.581591;0.578158;0.587948;0.589568;0.593764;0.594517;0.603699;0.606014;0.609375;0.620696;0.623591;0.624832;0.630547;0.636149;0.636627;0.644280;0.644565;0.652173;0.655688;0.665228;0.662509;0.669690;0.678598;0.681047;0.684421;0.686646;0.689245;0.696774;0.702282;0.702149;0.709098;0.712994;0.716263;0.724162;0.725192;0.730573;0.736829;0.737365;0.738511;0.739146;0.746025;0.746035;0.753114;0.754794;0.760206;0.764236;0.762387;0.764419;0.770521;0.772025;0.778491;0.775745;0.773297;0.776948;0.782159;0.779141;0.780220;0.783578;0.781551;0.779167;0.780958;0.784380;0.781649;0.779615;0.776957;0.775108;0.775406;0.773755;0.771735;0.774598;0.767200;0.762743;0.761305;0.757631;0.755719;0.749266;0.746977;0.738193;0.738183;0.734050;0.727518;0.724892;0.713886;0.713487;0.707758;0.699978;0.691691;0.685398;0.684476;0.678453;0.678247;0.668555;0.667474;0.661221;0.654551;0.648693;0.645348;0.637719;0.634385;0.627188;0.624845;0.623652;0.622430;0.619859;0.614388;0.610711;0.608963;0.604351;0.601266;0.601241;0.598217;0.600294;0.598996;0.598177;0.600097;0.596445;0.596075;0.597447;0.595751;0.595862;0.600743;0.598896;0.608081;0.603973;0.605789;0.602219;0.607843;0.610594;0.610947;0.611056;0.610992;0.622088;0.620009;0.617136;0.621881;0.622249;0.625865;0.623366;0.627632;0.626259;0.627264;0.630753;0.629460;0.630755;0.631601;0.631057;0.630461;0.634450;0.632126;0.635585;0.632481;0.633883;0.628996;0.630184;0.629064;0.623914;0.620026;0.617013;0.620434;0.618958;0.611924;0.608958;0.609330;0.606301;0.603951;0.603927;0.599827;0.598406;0.591234;0.584553;0.588397;0.581667;0.579148;0.576928;0.570543;0.567759;0.568096;0.564496;0.558614;0.557529;0.554843;0.553066;0.545324;0.547584;0.547287;0.537111;0.537093;0.541670
0.511363;0.512679;0.517346;0.517975;0.520731;0.519944;0.519351;0.521731;0.522248;0.525973;0.529002;0.529862;0.536639;0.528671;0.535266;0.534350;0.538673;0.541170;0.542065;0.545767;0.543198;0.550211;0.546894;0.547831;0.554856;0.559819;0.559662;0.563500;0.560630;0.565784;0.569407;0.576578;0.576420;0.582279;0.577845;0.581810;0.590015;0.589194;0.593721;0.598896;0.597800;0.607457;0.604556;0.616154;0.616408;0.621700;0.621882;0.625859;0.629761;0.632400;0.636821;0.640274;0.644692;0.652695;0.645916;0.654732;0.657473;0.665080;0.668685;0.668215;0.675099;0.683003;0.684207;0.689591;0.689263;0.698231;0.693613;0.697783;0.703514;0.703326;0.708045;0.713817;0.715228;0.720529;0.726219;0.728800;0.730283;0.739386;0.736614;0.744152;0.744006;0.743491;0.745876;0.748718;0.749697;0.749262;0.755885;0.759211;0.758257;0.756887;0.756884;0.759114;0.764070;0.763947;0.766137;0.767450;0.766158;0.768084;0.770119;0.765200;0.772119;0.770412;0.768434;0.768466;0.771456;0.772866;0.772191;0.771338;0.772097;0.769863;0.769122;0.768880;0.774991;0.765736;0.766887;0.763141;0.766698;0.763219;0.761978;0.761342;0.764681;0.758994;0.756589;0.754904;0.752581;0.751764;0.751326;0.751497;0.746315;0.741892;0.740660;0.739303;0.737778;0.734797;0.729724;0.728281;0.727158;0.726167;0.720135;0.714623;0.715293;0.716578;0.713032;0.706002;0.696978;0.699696;0.697872;0.691920;0.693038;0.687266;0.685561;0.685273;0.674266;0.674564;0.666684;0.668624;0.662917;0.660488;0.656151;0.653929;0.655350;0.645569;0.645793;0.637566;0.640515;0.634436;0.630821;0.628157;0.622763;0.623590;0.611823;0.615609;0.608923;0.607255;0.605183;0.597199;0.599623;0.590019;0.588683;0.588237;0.584584;0.579567;0.575214;0.573794;0.576712;0.568117;0.570401;0.560886;0.559534;0.559114;0.557029;0.547794;0.549443;0.543784;0.546167;0.545628;0.534762;0.537198;0.535492;0.537045
0.514023;0.513091;0.515788;0.513923;0.515186;0.522067;0.520456;0.519621;0.521084;0.522039;0.525147;0.523181;0.527887;0.530576;0.526168;0.531325;0.532544;0.532592;0.534298;0.538642;0.538984;0.539750;0.540003;0.540382;0.542797;0.543098;0.546664;0.547787;0.546611;0.547943;0.546399;0.547020;0.552392;0.551753;0.555315;0.551331;0.549783;0.551638;0.550178;0.557662;0.551319;0.558112;0.552272;0.553042;0.552600;0.559095;0.554148;0.550249;0.558635;0.556006;0.554911;0.556888;0.556680;0.558878;0.562108;0.559516;0.559086;0.558456;0.563972;0.561043;0.561413;0.555225;0.565750;0.561275;0.560553;0.567323;0.570912;0.570141;0.576085;0.577223;0.580080;0.582847;0.586225;0.591908;0.597181;0.600171;0.604291;0.609978;0.615272;0.622520;0.627796;0.636619;0.635943;0.647162;0.651203;0.662260;0.669398;0.678413;0.688221;0.696015;0.696748;0.714577;0.722416;0.733591;0.741422;0.750961;0.757995;0.764743;0.774604;0.782311;0.790862;0.800927;0.813253;0.822613;0.828014;0.836640;0.845827;0.851989;0.860545;0.861696;0.869547;0.879177;0.881154;0.889150;0.888392;0.891179;0.897665;0.899459;0.906223;0.907799;0.902033;0.902810;0.908136;0.905574;0.902629;0.899353;0.897245;0.894937;0.887253;0.886600;0.882250;0.873173;0.871175;0.863452;0.855401;0.849941;0.843014;0.835722;0.831748;0.821565;0.812408;0.806181;0.801681;0.790839;0.781059;0.772883;0.769090;0.758991;0.747740;0.736964;0.729922;0.719167;0.713075;0.704330;0.699772;0.689388;0.682776;0.671933;0.667366;0.660216;0.650512;0.646964;0.636270;0.634099;0.627090;0.621794;0.614445;0.615018;0.607651;0.598442;0.596592;0.593697;0.584884;0.580963;0.574385;0.574121;0.570769;0.564454;0.563103;0.561931;0.551783;0.549452;0.545212;0.541994;0.542422;0.534050;0.542739;0.535818;0.532401;0.528676;0.529862;0.525084;0.523170;0.529647;0.521472;0.525067;0.513030;0.513497;0.514247;0.509349
0.540815;0.544006;0.549177;0.550680;0.556900;0.557435;0.556744;0.560262;0.564840;0.572081;0.572359;0.575554;0.584081;0.578642;0.581524;0.588409;0.595099;0.598931;0.601083;0.604632;0.611235;0.606887;0.616157;0.616477;0.624261;0.624779;0.629352;0.635230;0.632707;0.639221;0.637043;0.639900;0.650760;0.646476;0.648498;0.655984;0.656633;0.651641;0.659226;0.659763;0.659122;0.654859;0.662032;0.657805;0.662717;0.660923;0.659272;0.664202;0.656990;0.654617;0.661656;0.660533;0.659185;0.655341;0.654891;0.649528;0.652455;0.648694;0.650755;0.645890;0.641948;0.639999;0.638186;0.638272;0.636027;0.634641;0.637728;0.632801;0.624761;0.625987;0.623854;0.618226;0.619256;0.619821;0.613975;0.614695;0.611128;0.609032;0.609140;0.605370;0.603495;0.599469;0.604512;0.606406;0.603357;0.603143;0.594216;0.595703;0.600740;0.600897;0.600908;0.600180;0.598217;0.598044;0.594003;0.593647;0.595698;0.596179;0.595025;0.599937;0.600918;0.602653;0.603257;0.601987;0.603354;0.608309;0.605994;0.610984;0.608868;0.611680;0.615707;0.616595;0.620212;0.618114;0.627348;0.625514;0.623402;0.631386;0.632550;0.636747;0.642706;0.648760;0.649384;0.653775;0.658883;0.661718;0.664570;0.672548;0.673710;0.677408;0.681190;0.688476;0.691376;0.695113;0.698311;0.703580;0.707155;0.716846;0.718959;0.721660;0.725329;0.731896;0.734169;0.739942;0.745211;0.744732;0.743613;0.746343;0.752868;0.756151;0.755851;0.756319;0.763400;0.765731;0.764462;0.766363;0.764569;0.760879;0.763845;0.764569;0.765623;0.759285;0.757777;0.757871;0.755556;0.747864;0.748740;0.746481;0.740784;0.740503;0.734709;0.722242;0.720576;0.721130;0.714701;0.705906;0.700844;0.698830;0.687557;0.685268;0.677741;0.669989;0.662927;0.655994;0.653954;0.645513;0.642677;0.633323;0.626931;0.620329;0.613169;0.609421;0.600761;0.598615;0.593558;0.587951;0.586244;0.580792;0.570289;0.566347
0.532509;0.534897;0.539485;0.540407;0.546728;0.544891;0.551205;0.550104;0.555310;0.557989;0.560927;0.564518;0.564148;0.569313;0.573082;0.580805;0.579482;0.584781;0.593894;0.583823;0.595937;0.591911;0.599655;0.603240;0.608621;0.612068;0.617143;0.616650;0.623626;0.629273;0.633556;0.631150;0.637002;0.639517;0.645073;0.646595;0.650060;0.650590;0.653470;0.661419;0.660946;0.659769;0.665563;0.671846;0.666933;0.671832;0.676432;0.680108;0.680849;0.681033;0.690754;0.688400;0.694930;0.692645;0.691419;0.692092;0.697030;0.704185;0.698166;0.706100;0.708798;0.705669;0.707770;0.714042;0.713835;0.714624;0.719592;0.720450;0.721525;0.724660;0.727420;0.724556;0.733362;0.730983;0.733856;0.734782;0.736245;0.740720;0.742823;0.741360;0.744582;0.746885;0.753784;0.749434;0.751363;0.759466;0.753899;0.758955;0.763520;0.759618;0.766562;0.768071;0.767804;0.768006;0.767044;0.769298;0.774638;0.775050;0.782425;0.778353;0.781506;0.786706;0.782158;0.784594;0.788617;0.781924;0.780178;0.787358;0.785888;0.787624;0.784993;0.779973;0.781917;0.783528;0.786421;0.780792;0.773638;0.777461;0.774444;0.775901;0.774479;0.765872;0.762161;0.763491;0.754565;0.753820;0.753342;0.741181;0.733936;0.734765;0.725316;0.724124;0.715371;0.708222;0.709474;0.703641;0.694206;0.688028;0.681619;0.680703;0.670961;0.664145;0.661164;0.656787;0.643087;0.640051;0.635077;0.632727;0.625443;0.612493;0.612206;0.607551;0.601697;0.600663;0.589240;0.586162;0.580842;0.578235;0.572537;0.566895;0.560424;0.562427;0.557964;0.547268;0.550400;0.550617;0.542294;0.541161;0.537063;0.536487;0.526998;0.527958;0.529300;0.527139;0.515568;0.523121;0.514224;0.516833;0.508664;0.519266;0.511341;0.512320;0.510871;0.511034;0.508914;0.512665;0.506225;0.504524;0.502176;0.508882;0.504974;0.505215;0.505488;0.501968;0.502812;0.501437;0.500504;0.497236;0.500332;0.498096
0.527623;0.529077;0.527638;0.526749;0.539269;0.531928;0.541013;0.542921;0.542217;0.542735;0.548007;0.548721;0.552575;0.557619;0.560133;0.555969;0.565208;0.563803;0.565037;0.572488;0.572889;0.575941;0.573507;0.579970;0.582906;0.589948;0.586333;0.590348;0.596315;0.599539;0.598778;0.603784;0.605990;0.608827;0.609588;0.611871;0.614392;0.616088;0.618041;0.617666;0.621957;0.626659;0.621245;0.627195;0.629271;0.630229;0.635708;0.630086;0.631940;0.637004;0.632960;0.634808;0.633491;0.636545;0.640590;0.639600;0.640280;0.645155;0.643135;0.645190;0.642588;0.642605;0.645312;0.645681;0.641203;0.651560;0.647872;0.643455;0.649787;0.644381;0.650456;0.650002;0.649857;0.646774;0.652459;0.649002;0.647422;0.649884;0.650168;0.651313;0.653325;0.654421;0.651580;0.650202;0.652610;0.650011;0.653229;0.650802;0.654115;0.647664;0.651227;0.650288;0.651973;0.649894;0.651440;0.652924;0.651157;0.651296;0.649984;0.650673;0.649813;0.652523;0.653701;0.652483;0.653618;0.656512;0.655723;0.657605;0.655067;0.660838;0.664688;0.662725;0.664543;0.664992;0.665825;0.669299;0.673444;0.671711;0.673132;0.678819;0.680909;0.681720;0.685101;0.687943;0.687230;0.688390;0.692782;0.693928;0.699667;0.701758;0.701972;0.710370;0.712459;0.717467;0.715652;0.722294;0.727685;0.723579;0.732255;0.734181;0.734982;0.735936;0.738310;0.744446;0.747123;0.744908;0.750580;0.749281;0.752146;0.755591;0.754100;0.751450;0.754266;0.754548;0.758516;0.758844;0.753365;0.753953;0.758470;0.753479;0.750242;0.748909;0.744222;0.745509;0.742744;0.737171;0.734267;0.733035;0.728537;0.721767;0.720571;0.718213;0.711500;0.705807;0.701086;0.694024;0.691370;0.681472;0.679151;0.671779;0.667012;0.658219;0.655242;0.650420;0.644446;0.636697;0.630417;0.628906;0.622513;0.614929;0.608845;0.604354;0.599630;0.594420;0.591875;0.584444;0.578222;0.576056;0.573297;0.568341
0.513539;0.518752;0.512623;0.516982;0.516242;0.519568;0.517961;0.517424;0.520955;0.522711;0.521228;0.524062;0.524053;0.531078;0.530637;0.525876;0.530662;0.529082;0.538248;0.530184;0.537665;0.533178;0.539466;0.538054;0.534220;0.544165;0.537359;0.546287;0.548167;0.543787;0.552807;0.547498;0.548926;0.549896;0.554635;0.550918;0.552982;0.553504;0.552435;0.556741;0.554242;0.557326;0.553358;0.554815;0.559233;0.554021;0.565615;0.560638;0.559811;0.561554;0.559195;0.561305;0.562761;0.558489;0.559115;0.558403;0.568669;0.559567;0.559126;0.561816;0.563343;0.563806;0.562820;0.562593;0.563301;0.568213;0.564302;0.567238;0.567239;0.568185;0.565959;0.568255;0.570953;0.570244;0.569235;0.568556;0.572451;0.571951;0.572818;0.576094;0.580288;0.576464;0.579512;0.577681;0.581248;0.588227;0.587766;0.585824;0.592987;0.593220;0.596242;0.601158;0.595512;0.604598;0.602574;0.603721;0.609895;0.618649;0.617642;0.619816;0.625727;0.625687;0.628719;0.630480;0.634245;0.641909;0.644755;0.648358;0.653632;0.656240;0.659115;0.665225;0.669496;0.671757;0.674958;0.681193;0.685512;0.692110;0.697593;0.703948;0.704829;0.709442;0.721203;0.725677;0.727135;0.732904;0.741520;0.744172;0.755507;0.758408;0.764605;0.766188;0.777028;0.778854;0.788344;0.787764;0.792154;0.801614;0.809001;0.815471;0.810205;0.818895;0.828253;0.830255;0.834907;0.842489;0.836022;0.842046;0.845999;0.850907;0.850356;0.852902;0.858113;0.856255;0.856664;0.859879;0.860186;0.855215;0.857061;0.852867;0.856691;0.849332;0.846632;0.847035;0.839016;0.835885;0.827921;0.829560;0.819995;0.814350;0.802068;0.804015;0.795787;0.792047;0.782748;0.776372;0.764440;0.758674;0.751948;0.744727;0.735773;0.723102;0.721197;0.708583;0.705443;0.693532;0.682857;0.680429;0.673778;0.668132;0.657047;0.651863;0.638295;0.633970;0.626152;0.625651;0.610988;0.603720;0.602148;0.595199
0.521842;0.522683;0.521942;0.523960;0.528781;0.529930;0.529115;0.527984;0.533140;0.534165;0.536812;0.537655;0.544030;0.541939;0.546762;0.549046;0.546213;0.550826;0.559263;0.557799;0.557773;0.563470;0.565740;0.575547;0.573289;0.580431;0.581003;0.586016;0.590605;0.592756;0.597299;0.599437;0.602972;0.612770;0.611210;0.616620;0.620734;0.622420;0.635370;0.636526;0.642191;0.652088;0.652266;0.654716;0.663464;0.666241;0.669262;0.679902;0.681953;0.690621;0.692882;0.701429;0.706635;0.712958;0.712093;0.724054;0.723820;0.733471;0.735488;0.744923;0.750566;0.754865;0.761076;0.759083;0.768414;0.774242;0.777831;0.782446;0.783508;0.787833;0.790375;0.792301;0.798735;0.799425;0.797839;0.797985;0.802085;0.806009;0.804384;0.810205;0.803670;0.806336;0.807923;0.807359;0.801985;0.799354;0.799368;0.794531;0.790972;0.792752;0.793274;0.789247;0.785618;0.779675;0.779110;0.770555;0.766833;0.763663;0.761292;0.757815;0.750591;0.745339;0.742977;0.735660;0.732550;0.729829;0.723990;0.714308;0.714127;0.713721;0.704822;0.702868;0.695174;0.695823;0.692650;0.687830;0.682871;0.682689;0.676672;0.667041;0.666053;0.669003;0.659814;0.663997;0.658152;0.659426;0.655698;0.649074;0.648463;0.646001;0.646395;0.646445;0.646809;0.642788;0.641950;0.642754;0.641257;0.639756;0.643734;0.638339;0.636231;0.640981;0.633255;0.639257;0.636537;0.632478;0.636046;0.632628;0.631683;0.634237;0.631773;0.635770;0.628233;0.633438;0.626799;0.629571;0.626199;0.621012;0.617926;0.624975;0.623446;0.622596;0.615002;0.615855;0.613141;0.613625;0.616354;0.605730;0.609597;0.605004;0.599684;0.600978;0.595265;0.595013;0.591402;0.590074;0.586281;0.589643;0.582173;0.582288;0.575609;0.571722;0.569263;0.566033;0.565802;0.561086;0.560596;0.555923;0.555782;0.552853;0.547809;0.549024;0.546798;0.540675;0.543662;0.534968;0.537571;0.537331;0.531895;0.531105
0.563988;0.568286;0.575220;0.578664;0.579377;0.587204;0.596765;0.599243;0.599893;0.610863;0.611721;0.623899;0.628339;0.632156;0.637523;0.645694;0.649953;0.663370;0.663358;0.670527;0.674881;0.681813;0.692041;0.696065;0.700651;0.706235;0.715023;0.719016;0.722252;0.726469;0.734615;0.738392;0.742772;0.746417;0.751708;0.752357;0.765361;0.763327;0.767521;0.769028;0.778420;0.775230;0.780364;0.777825;0.783399;0.780219;0.783604;0.786253;0.790235;0.783510;0.786020;0.787212;0.783901;0.784799;0.785742;0.778271;0.777783;0.782887;0.780908;0.779721;0.775569;0.775880;0.772015;0.767009;0.769670;0.768998;0.762084;0.759356;0.758611;0.753965;0.751734;0.754462;0.744289;0.745275;0.740490;0.733944;0.731390;0.731745;0.723073;0.721256;0.717733;0.712325;0.713426;0.705843;0.701474;0.693652;0.688802;0.689337;0.687034;0.680269;0.674524;0.670972;0.669683;0.665170;0.659422;0.660064;0.648349;0.647654;0.641903;0.640849;0.631774;0.623577;0.621933;0.622640;0.615225;0.610520;0.609845;0.610691;0.608073;0.601484;0.599213;0.595273;0.591826;0.592165;0.587288;0.590371;0.585455;0.585828;0.581671;0.585526;0.582842;0.576621;0.582260;0.582279;0.579063;0.582121;0.584447;0.580350;0.585419;0.588060;0.581249;0.588167;0.581861;0.586499;0.586431;0.587054;0.590530;0.589262;0.592650;0.599292;0.602102;0.595593;0.604483;0.600484;0.601624;0.609032;0.604414;0.610966;0.609032;0.610980;0.612678;0.616329;0.611577;0.613881;0.619917;0.619886;0.613514;0.624602;0.614258;0.615798;0.617217;0.615227;0.614326;0.613287;0.615567;0.611470;0.612255;0.607702;0.604092;0.605194;0.603180;0.604171;0.600514;0.596562;0.591234;0.592743;0.587523;0.583317;0.583158;0.584003;0.575440;0.579172;0.573951;0.574508;0.570787;0.565105;0.564282;0.563913;0.566014;0.555513;0.557218;0.548181;0.550783;0.547415;0.545368;0.542040;0.536624;0.536841;0.534296;0.531559
0.569820;0.570175;0.576268;0.583753;0.586177;0.590530;0.595965;0.602439;0.610750;0.612567;0.626163;0.628441;0.637286;0.636906;0.647489;0.651024;0.655745;0.667154;0.673562;0.679308;0.682190;0.685277;0.694568;0.701713;0.708604;0.707811;0.719071;0.724708;0.726511;0.733613;0.741941;0.742408;0.747824;0.747905;0.756599;0.757198;0.756326;0.764400;0.765317;0.768764;0.769858;0.767672;0.768781;0.767887;0.770896;0.777050;0.773134;0.767261;0.771841;0.767667;0.766709;0.768354;0.762823;0.759052;0.758618;0.756955;0.750185;0.749131;0.749789;0.743641;0.740643;0.738835;0.730427;0.729446;0.729984;0.725522;0.720472;0.721360;0.714172;0.711877;0.705135;0.706464;0.702422;0.699756;0.699127;0.691155;0.691773;0.691061;0.689070;0.687703;0.684325;0.681152;0.681185;0.680297;0.683970;0.675730;0.678292;0.674033;0.672295;0.670747;0.667085;0.678601;0.676910;0.672863;0.673167;0.674500;0.671942;0.672235;0.669566;0.672504;0.673488;0.677461;0.678989;0.679623;0.673987;0.677092;0.673941;0.676176;0.677687;0.678196;0.678860;0.677021;0.676053;0.678226;0.676202;0.666025;0.669311;0.676940;0.673931;0.669940;0.665690;0.667743;0.669971;0.668688;0.663520;0.659582;0.661255;0.657320;0.652436;0.650644;0.645990;0.649101;0.641667;0.640477;0.639540;0.638276;0.631751;0.630884;0.626507;0.622949;0.619778;0.617161;0.615426;0.611133;0.608228;0.603617;0.600829;0.597220;0.594979;0.590363;0.588756;0.584609;0.585222;0.579640;0.579671;0.570676;0.569619;0.565278;0.566626;0.561996;0.557526;0.552899;0.554834;0.555065;0.548980;0.545270;0.540256;0.545448;0.538690;0.535746;0.534508;0.530922;0.531474;0.527354;0.525915;0.523550;0.525522;0.523121;0.524902;0.517692;0.522184;0.517851;0.514708;0.512765;0.515249;0.507769;0.509148;0.507122;0.505148;0.511152;0.507691;0.504468;0.504346;0.500554;0.504378;0.501306;0.498895;0.496164;0.499373;0.494357
0.589063;0.589148;0.603316;0.601469;0.613080;0.621632;0.625789;0.630675;0.638653;0.646027;0.652787;0.657618;0.666191;0.676024;0.687111;0.696406;0.701004;0.705204;0.716516;0.726874;0.731234;0.735110;0.746808;0.752203;0.757687;0.766084;0.770244;0.782038;0.785275;0.793863;0.796628;0.806363;0.804559;0.811148;0.813173;0.814982;0.821701;0.822463;0.827046;0.829213;0.826791;0.827298;0.833514;0.829129;0.832699;0.829313;0.823779;0.829043;0.823470;0.819430;0.818963;0.815762;0.806546;0.806800;0.798282;0.795270;0.795104;0.790265;0.783099;0.771260;0.767731;0.765514;0.756511;0.755288;0.744847;0.736418;0.731080;0.725513;0.714614;0.711400;0.704169;0.703911;0.694467;0.685195;0.682973;0.678824;0.671526;0.662986;0.660920;0.653950;0.646126;0.646333;0.638649;0.635574;0.628812;0.622444;0.623879;0.615286;0.614889;0.605392;0.607693;0.605454;0.596725;0.596241;0.594911;0.590286;0.591817;0.586888;0.584612;0.576452;0.575674;0.576495;0.576780;0.568112;0.574356;0.572860;0.567347;0.568142;0.565171;0.566492;0.565931;0.570446;0.568997;0.570178;0.567205;0.562681;0.568011;0.564606;0.565650;0.566271;0.568311;0.567780;0.570015;0.572398;0.573660;0.576843;0.569641;0.574002;0.578987;0.576904;0.577145;0.583760;0.581581;0.584088;0.585866;0.586208;0.591543;0.590763;0.596590;0.593149;0.600638;0.602604;0.600088;0.601937;0.606251;0.608755;0.603437;0.606425;0.605998;0.608128;0.610440;0.608202;0.608960;0.619213;0.617976;0.610308;0.610483;0.611706;0.613479;0.611586;0.612482;0.611726;0.612777;0.605405;0.613607;0.610418;0.605601;0.601924;0.606168;0.598407;0.601637;0.596884;0.601826;0.593767;0.589910;0.591916;0.590132;0.586939;0.582244;0.579491;0.575965;0.575111;0.570093;0.567098;0.562650;0.562332;0.559841;0.557589;0.553588;0.550363;0.546895;0.549537;0.545800;0.542041;0.539687;0.533938;0.533540;0.536487;0.533782;0.526433
0.511082;0.518034;0.514047;0.516667;0.521782;0.519147;0.518853;0.517405;0.522593;0.521770;0.525693;0.521871;0.524680;0.524987;0.534131;0.529591;0.534192;0.528198;0.534893;0.533314;0.535366;0.541341;0.539465;0.539289;0.541146;0.546884;0.549055;0.548660;0.547711;0.551509;0.551619;0.549445;0.552443;0.553800;0.555198;0.556230;0.564685;0.559297;0.562719;0.561787;0.570117;0.564153;0.570661;0.570563;0.570134;0.572898;0.573150;0.578443;0.573179;0.577769;0.581607;0.582037;0.582004;0.590013;0.583508;0.587035;0.588007;0.589148;0.596135;0.598240;0.593351;0.601698;0.604212;0.601085;0.606200;0.611543;0.611392;0.619102;0.621257;0.622365;0.627759;0.625645;0.629396;0.638667;0.637708;0.646329;0.652052;0.652984;0.657481;0.660407;0.673028;0.671021;0.678690;0.687764;0.689302;0.700196;0.696305;0.703267;0.714196;0.716720;0.724717;0.728463;0.735635;0.740645;0.750153;0.750602;0.761701;0.770369;0.774525;0.780183;0.784452;0.790157;0.798948;0.804218;0.808354;0.811972;0.817448;0.820458;0.826841;0.833139;0.832745;0.836579;0.839046;0.842402;0.847507;0.848977;0.852116;0.849894;0.854644;0.849112;0.850295;0.850276;0.854377;0.847719;0.857925;0.846816;0.842723;0.842559;0.837014;0.837890;0.833534;0.830006;0.820513;0.822074;0.813182;0.807770;0.806402;0.800394;0.791982;0.786854;0.782921;0.773061;0.764877;0.762089;0.752391;0.743485;0.741785;0.731597;0.728609;0.722450;0.715893;0.709933;0.702680;0.697744;0.691205;0.683011;0.674553;0.666456;0.665922;0.659531;0.656207;0.651129;0.645646;0.631097;0.631762;0.630548;0.626724;0.618419;0.613967;0.604199;0.600431;0.602109;0.591357;0.590816;0.581949;0.587133;0.583273;0.576687;0.573404;0.563614;0.567354;0.561636;0.556943;0.551777;0.551640;0.548815;0.548807;0.545012;0.544587;0.538821;0.538888;0.531855;0.528783;0.528397;0.528579;0.520046;0.525060;0.522617;0.521433;0.521527
0.574462;0.574259;0.579227;0.585197;0.589819;0.595703;0.598385;0.608964;0.612446;0.621672;0.630730;0.632060;0.636777;0.646101;0.645032;0.653854;0.660464;0.664466;0.670437;0.679271;0.682927;0.689218;0.698313;0.704265;0.707761;0.715067;0.724281;0.724937;0.725497;0.733242;0.736446;0.740650;0.737740;0.746100;0.749466;0.749875;0.753022;0.756234;0.756264;0.757028;0.757760;0.755749;0.750563;0.756474;0.750372;0.751771;0.753258;0.742110;0.738985;0.740473;0.736299;0.737910;0.729844;0.723071;0.725538;0.718739;0.717160;0.707763;0.704493;0.701714;0.689460;0.687995;0.685238;0.673361;0.667723;0.668976;0.661961;0.655252;0.654673;0.652362;0.642948;0.636912;0.633277;0.629424;0.623336;0.622627;0.622867;0.619206;0.616641;0.606154;0.609827;0.606098;0.606886;0.603503;0.601963;0.606295;0.602376;0.600501;0.600834;0.603162;0.604275;0.604290;0.602149;0.602858;0.606023;0.608254;0.606091;0.612290;0.612773;0.611831;0.617098;0.618552;0.619951;0.622403;0.627601;0.629051;0.632020;0.633108;0.634498;0.638055;0.639722;0.636950;0.646032;0.649398;0.651960;0.655999;0.652477;0.655946;0.660522;0.655328;0.657017;0.666667;0.664928;0.660899;0.669698;0.669747;0.670640;0.665671;0.671204;0.670343;0.667754;0.672587;0.670430;0.673112;0.674517;0.673351;0.668172;0.676096;0.669545;0.672567;0.665457;0.669999;0.671389;0.668583;0.666592;0.665622;0.670130;0.662049;0.660518;0.662806;0.664710;0.660669;0.662010;0.658804;0.655331;0.652404;0.644407;0.646802;0.646945;0.643544;0.641608;0.640109;0.638928;0.633469;0.631848;0.629673;0.627561;0.620909;0.622340;0.615197;0.614399;0.606015;0.611701;0.607476;0.601454;0.601351;0.595120;0.593492;0.586114;0.584460;0.580844;0.575953;0.570581;0.568385;0.568721;0.568726;0.557822;0.561979;0.550592;0.553695;0.551848;0.544422;0.545224;0.541750;0.537777;0.535978;0.533502;0.527412;0.527810;0.526941
0.547462;0.544699;0.553554;0.557979;0.563625;0.559497;0.566489;0.569475;0.570639;0.582146;0.578824;0.590501;0.594403;0.595356;0.602184;0.601504;0.608612;0.613891;0.619912;0.616960;0.624838;0.627842;0.635519;0.640587;0.644123;0.643332;0.651649;0.656527;0.652795;0.660897;0.660669;0.660492;0.664387;0.669389;0.672439;0.672631;0.675582;0.675747;0.682418;0.681748;0.680161;0.679843;0.680796;0.675825;0.685117;0.687264;0.681353;0.680635;0.685527;0.684319;0.678091;0.675397;0.677864;0.677412;0.671952;0.674117;0.671548;0.668383;0.666608;0.663450;0.664771;0.657620;0.655767;0.656214;0.651483;0.646166;0.649522;0.645912;0.647202;0.642604;0.638425;0.638903;0.631030;0.632997;0.628389;0.633628;0.631605;0.627128;0.623370;0.623245;0.626687;0.621929;0.622840;0.617423;0.620138;0.626209;0.621549;0.623501;0.617421;0.622336;0.621844;0.622607;0.625049;0.627007;0.625175;0.629012;0.623581;0.632406;0.634168;0.626741;0.632446;0.634379;0.640521;0.640040;0.640845;0.643913;0.644348;0.650427;0.648894;0.649732;0.652609;0.655407;0.665182;0.658928;0.661237;0.663609;0.664142;0.672975;0.672743;0.678172;0.674176;0.684198;0.679177;0.685783;0.685467;0.686580;0.687721;0.692678;0.694992;0.695640;0.704152;0.701461;0.702591;0.703706;0.708895;0.710295;0.712239;0.708641;0.720026;0.715207;0.719509;0.720045;0.718132;0.726829;0.729984;0.726856;0.723794;0.726672;0.729622;0.728400;0.726641;0.727907;0.732599;0.728706;0.725480;0.730171;0.724065;0.724431;0.722664;0.721663;0.715384;0.715146;0.717300;0.709477;0.710325;0.703907;0.704238;0.702065;0.695108;0.694768;0.691468;0.682519;0.681127;0.677081;0.667729;0.667874;0.657898;0.653501;0.653589;0.647373;0.641701;0.637068;0.634916;0.629074;0.626351;0.616364;0.610876;0.605685;0.608142;0.599138;0.595940;0.588976;0.588404;0.583622;0.578853;0.578499;0.572381;0.565910;0.564839;0.560240
0.539388;0.544669;0.546433;0.542006;0.556256;0.555056;0.556899;0.560746;0.563795;0.565149;0.573091;0.577388;0.577333;0.580000;0.584252;0.588327;0.595615;0.596034;0.600281;0.609821;0.611911;0.613759;0.613714;0.620091;0.621477;0.626223;0.630441;0.630549;0.633137;0.640174;0.638179;0.642917;0.647411;0.650094;0.652170;0.652246;0.658743;0.656367;0.659550;0.663307;0.664636;0.661809;0.669379;0.664794;0.668096;0.670126;0.669747;0.666764;0.668619;0.666328;0.672573;0.668810;0.665348;0.668807;0.670061;0.664565;0.667367;0.664650;0.664551;0.665309;0.662042;0.662305;0.664555;0.668471;0.664707;0.665078;0.663261;0.659729;0.663774;0.662517;0.665863;0.661938;0.667759;0.666477;0.662174;0.667571;0.669350;0.672567;0.671719;0.674125;0.674664;0.677120;0.680861;0.686845;0.687732;0.687909;0.695650;0.695323;0.700736;0.704081;0.701837;0.706261;0.710656;0.715391;0.721208;0.725176;0.723289;0.731460;0.731223;0.736499;0.741838;0.746151;0.748391;0.748618;0.753966;0.757497;0.763094;0.765206;0.770800;0.772821;0.771358;0.780709;0.772456;0.781705;0.780396;0.780329;0.785240;0.788580;0.783219;0.785219;0.785959;0.778924;0.779660;0.778347;0.772984;0.772500;0.775090;0.767593;0.759406;0.762610;0.758201;0.757199;0.750622;0.747360;0.741123;0.736172;0.733889;0.729976;0.722865;0.721307;0.715762;0.709193;0.701474;0.696024;0.695506;0.685153;0.679401;0.672344;0.666346;0.663766;0.662402;0.654502;0.649645;0.644069;0.637686;0.635307;0.630773;0.628518;0.621531;0.618180;0.614318;0.603395;0.600837;0.597310;0.592405;0.590856;0.581644;0.582240;0.577734;0.575185;0.571084;0.570121;0.569021;0.562242;0.557596;0.556372;0.553158;0.555026;0.546481;0.547630;0.538642;0.544848;0.539859;0.538051;0.539310;0.534702;0.529814;0.532615;0.529476;0.524101;0.528881;0.516963;0.524626;0.520828;0.521211;0.523295;0.517941;0.519864;0.515834;0.517047
0.516028;0.515521;0.518338;0.519233;0.522192;0.521287;0.522696;0.522993;0.525658;0.525477;0.528710;0.531040;0.531270;0.536352;0.535185;0.533130;0.540961;0.538075;0.541982;0.544703;0.548292;0.552481;0.554218;0.551415;0.555747;0.555244;0.562962;0.566812;0.569141;0.572331;0.569179;0.574170;0.574165;0.580818;0.581543;0.583106;0.589297;0.591267;0.595805;0.600277;0.605851;0.602996;0.604572;0.614409;0.616224;0.618733;0.625370;0.624318;0.629922;0.637381;0.633976;0.639229;0.646604;0.646580;0.649985;0.659578;0.658109;0.662218;0.670564;0.665883;0.672308;0.675661;0.680750;0.678413;0.684343;0.690038;0.693023;0.697495;0.701190;0.700361;0.703268;0.705108;0.706628;0.708362;0.715706;0.707863;0.713119;0.713122;0.721896;0.718017;0.724962;0.722288;0.715915;0.720846;0.723810;0.725444;0.725179;0.718791;0.720392;0.720505;0.726138;0.718139;0.718245;0.719640;0.720123;0.719656;0.718025;0.718313;0.714157;0.714497;0.712619;0.707626;0.711785;0.708407;0.709429;0.706153;0.701788;0.702906;0.701875;0.701271;0.703881;0.703637;0.695490;0.693511;0.695634;0.695700;0.697194;0.693516;0.693895;0.693354;0.698091;0.696031;0.696729;0.697322;0.694623;0.692966;0.696133;0.696068;0.698192;0.701870;0.698543;0.698425;0.701907;0.707062;0.701326;0.700250;0.699425;0.708180;0.704885;0.700868;0.701817;0.704899;0.705400;0.707545;0.706004;0.709448;0.707852;0.709870;0.709181;0.710234;0.706580;0.709870;0.714115;0.712005;0.705781;0.705676;0.706066;0.701606;0.703941;0.703743;0.700851;0.694819;0.694147;0.693272;0.688776;0.686596;0.686766;0.678888;0.677347;0.671075;0.667025;0.668600;0.661993;0.657598;0.655683;0.648632;0.640965;0.640530;0.633207;0.630904;0.627122;0.624829;0.617412;0.613231;0.608614;0.600805;0.597167;0.593738;0.590668;0.586928;0.579366;0.577115;0.576640;0.567570;0.567337;0.559265;0.556530;0.554874;0.553588;0.552615
0.517183;0.517151;0.524142;0.517591;0.518389;0.520305;0.522562;0.523228;0.529724;0.525585;0.531778;0.530823;0.534089;0.539157;0.539439;0.540634;0.544864;0.548345;0.547408;0.547544;0.553100;0.550347;0.560285;0.555227;0.557943;0.561981;0.565315;0.570250;0.574229;0.574259;0.577987;0.582386;0.583440;0.588170;0.594129;0.601253;0.600833;0.599559;0.607009;0.614306;0.615113;0.618498;0.625225;0.626275;0.629490;0.634070;0.641067;0.643179;0.651068;0.658553;0.658690;0.664078;0.663098;0.674550;0.677562;0.683695;0.684630;0.689067;0.693874;0.697794;0.706276;0.711447;0.712477;0.718754;0.725081;0.726690;0.739216;0.737678;0.743472;0.744631;0.750691;0.754474;0.751978;0.758158;0.765436;0.764692;0.775773;0.772264;0.777009;0.777476;0.784939;0.789211;0.787468;0.783061;0.785220;0.792243;0.794688;0.787422;0.793771;0.797597;0.799056;0.799406;0.798761;0.798429;0.795429;0.795005;0.794042;0.795538;0.797670;0.796573;0.798811;0.795095;0.801562;0.795948;0.794382;0.795506;0.793017;0.785292;0.788858;0.785430;0.783122;0.781799;0.783140;0.775395;0.772961;0.772500;0.772667;0.767994;0.765807;0.760392;0.758304;0.757425;0.750979;0.750899;0.746905;0.744629;0.739507;0.732553;0.730009;0.726078;0.722135;0.716264;0.713139;0.715338;0.705126;0.697814;0.695533;0.688929;0.683639;0.681151;0.678582;0.672804;0.672102;0.663352;0.660033;0.657006;0.650032;0.645879;0.639278;0.642529;0.634063;0.627791;0.624475;0.620590;0.617451;0.614610;0.611132;0.607237;0.603829;0.598885;0.598080;0.592829;0.585564;0.586949;0.577000;0.578871;0.573781;0.571468;0.563737;0.568729;0.565256;0.560931;0.558286;0.555502;0.552742;0.550431;0.551991;0.545812;0.545086;0.544661;0.548255;0.539347;0.537325;0.533140;0.528520;0.533189;0.530166;0.528324;0.523035;0.520925;0.523624;0.523640;0.524641;0.517818;0.516506;0.519247;0.517294;0.520725;0.515293;0.516911
0.500590;0.507601;0.505959;0.507937;0.512629;0.512867;0.510609;0.507680;0.513765;0.513646;0.515306;0.511011;0.518672;0.515720;0.517169;0.515917;0.516120;0.521010;0.518084;0.523015;0.523182;0.525698;0.522882;0.524690;0.524467;0.521924;0.531107;0.528727;0.531834;0.530622;0.525549;0.529904;0.531662;0.531780;0.531224;0.534118;0.538911;0.533946;0.539445;0.536454;0.540258;0.537969;0.542912;0.539042;0.539650;0.545383;0.544819;0.543071;0.544872;0.542553;0.547163;0.551377;0.545864;0.548665;0.550347;0.557268;0.553184;0.559765;0.556539;0.560360;0.559076;0.566792;0.567227;0.569362;0.572958;0.572940;0.575844;0.580421;0.579145;0.584857;0.585855;0.591000;0.592959;0.599073;0.604255;0.600588;0.607000;0.612258;0.616302;0.626354;0.626672;0.629138;0.638582;0.640602;0.646134;0.653971;0.659155;0.669091;0.668790;0.676547;0.679819;0.685134;0.692325;0.699754;0.706335;0.711634;0.723700;0.730637;0.735076;0.738401;0.745865;0.755779;0.762743;0.767007;0.772608;0.781301;0.790232;0.791140;0.793087;0.802247;0.804609;0.809194;0.815202;0.818291;0.818526;0.828721;0.828427;0.831362;0.834065;0.833572;0.840689;0.838153;0.835121;0.842011;0.843128;0.842823;0.840141;0.845046;0.839699;0.836756;0.841974;0.837143;0.837195;0.839410;0.833567;0.830477;0.824674;0.826423;0.822068;0.819765;0.814999;0.808533;0.803721;0.801180;0.798969;0.791819;0.794714;0.788800;0.784332;0.777377;0.769084;0.762844;0.764357;0.758739;0.754178;0.749692;0.743910;0.731445;0.731719;0.727559;0.720612;0.716322;0.712115;0.702033;0.705221;0.695060;0.693783;0.689164;0.679960;0.674014;0.670570;0.666785;0.657870;0.653465;0.648419;0.640298;0.637263;0.632386;0.632527;0.624347;0.620575;0.617993;0.609391;0.603168;0.593559;0.586838;0.583156;0.585924;0.581973;0.570997;0.572791;0.568876;0.563016;0.557977;0.551438;0.548524;0.550890;0.546279;0.542486;0.540668
0.571414;0.574869;0.583032;0.585328;0.589854;0.597167;0.601903;0.605783;0.612786;0.620845;0.627381;0.634455;0.638748;0.645794;0.655397;0.659915;0.669838;0.670406;0.679409;0.686489;0.690927;0.700293;0.707628;0.710805;0.715369;0.726887;0.727494;0.736443;0.737304;0.744700;0.754867;0.754221;0.759768;0.767052;0.770059;0.773884;0.776333;0.776153;0.778314;0.787315;0.783555;0.786370;0.789690;0.789403;0.791857;0.789143;0.785361;0.790586;0.789951;0.787776;0.791699;0.785578;0.781583;0.780504;0.783038;0.777545;0.771843;0.770140;0.769356;0.768112;0.767289;0.759652;0.758747;0.756443;0.750809;0.751008;0.742825;0.742716;0.741687;0.737166;0.732427;0.727006;0.729170;0.725167;0.719037;0.713811;0.712085;0.710452;0.714083;0.705955;0.704255;0.704961;0.695790;0.697950;0.700126;0.698051;0.694657;0.695356;0.693003;0.692589;0.689065;0.689616;0.689631;0.689230;0.687170;0.690243;0.688663;0.685239;0.686884;0.690178;0.685137;0.686238;0.689386;0.683495;0.685500;0.686631;0.687798;0.684935;0.684434;0.681062;0.680571;0.680020;0.682554;0.674144;0.678344;0.677586;0.672453;0.674370;0.669733;0.668322;0.667920;0.666915;0.666468;0.661975;0.662381;0.657446;0.655556;0.651694;0.648772;0.647163;0.638986;0.638138;0.632102;0.633279;0.629363;0.622840;0.617758;0.617650;0.613994;0.608360;0.606571;0.603011;0.594630;0.598391;0.589641;0.585640;0.580444;0.579913;0.575847;0.574167;0.573177;0.562360;0.563163;0.558223;0.558893;0.558124;0.549739;0.547242;0.542165;0.538789;0.539427;0.536718;0.537171;0.534178;0.530348;0.526994;0.527326;0.526264;0.522216;0.521459;0.520767;0.517872;0.518570;0.513747;0.516362;0.513442;0.510933;0.509577;0.508771;0.510412;0.509519;0.507413;0.507939;0.503648;0.510777;0.502770;0.507943;0.501823;0.500207;0.503600;0.500518;0.502529;0.503506;0.503309;0.502799;0.502728;0.504054;0.498290;0.500755;0.494413
0.546141;0.548894;0.550698;0.553545;0.556073;0.560724;0.561150;0.567116;0.570244;0.576958;0.575739;0.584734;0.586360;0.594017;0.596841;0.598254;0.606208;0.606144;0.610610;0.615472;0.620987;0.633134;0.627261;0.635680;0.639393;0.643440;0.640893;0.650067;0.653266;0.655474;0.653182;0.658074;0.662620;0.662458;0.663509;0.670639;0.674906;0.677018;0.675501;0.679143;0.681633;0.680671;0.686798;0.678729;0.683157;0.683864;0.684477;0.682263;0.679159;0.680773;0.676817;0.678760;0.677256;0.680546;0.676619;0.668828;0.674543;0.668820;0.667770;0.667641;0.663327;0.666499;0.660162;0.655415;0.655837;0.656155;0.646606;0.645315;0.647897;0.647691;0.639201;0.637956;0.635813;0.635675;0.630164;0.632024;0.628204;0.627747;0.616421;0.619719;0.623484;0.622848;0.616768;0.616898;0.613117;0.614513;0.607384;0.612051;0.606017;0.606689;0.607384;0.605144;0.602070;0.603132;0.602082;0.601968;0.602873;0.600601;0.604994;0.595579;0.601501;0.601150;0.597541;0.598151;0.600445;0.602260;0.598929;0.600459;0.611416;0.604894;0.605885;0.609674;0.608130;0.614432;0.616139;0.615937;0.619036;0.620996;0.625312;0.620555;0.623610;0.633806;0.636710;0.634872;0.643518;0.644888;0.651570;0.652211;0.655449;0.659065;0.663438;0.667376;0.668471;0.675158;0.677063;0.685135;0.683958;0.691432;0.693243;0.696628;0.707515;0.708386;0.712322;0.712336;0.719096;0.718914;0.721931;0.726529;0.724262;0.727891;0.733368;0.737572;0.736974;0.734256;0.737235;0.738494;0.735951;0.741535;0.737902;0.739007;0.739590;0.730301;0.731666;0.734117;0.729254;0.729102;0.724652;0.721061;0.716961;0.710760;0.712399;0.705922;0.698751;0.693725;0.692655;0.688410;0.683595;0.676625;0.668977;0.664058;0.658712;0.652832;0.650073;0.641511;0.638818;0.626838;0.625712;0.617909;0.617382;0.609105;0.602886;0.592799;0.596380;0.585335;0.580092;0.579213;0.571521;0.569839;0.559731;0.559447
0.517675;0.518668;0.519930;0.517928;0.522307;0.527372;0.525131;0.528256;0.526293;0.531409;0.534399;0.536337;0.537540;0.537856;0.542374;0.544328;0.543248;0.543434;0.552314;0.553406;0.555810;0.559070;0.561686;0.563934;0.563476;0.571253;0.570884;0.577895;0.576916;0.575701;0.583070;0.584488;0.586135;0.592598;0.594184;0.599670;0.603499;0.604730;0.609774;0.611434;0.618706;0.619403;0.620947;0.628479;0.635388;0.634627;0.642249;0.647412;0.646924;0.652839;0.658572;0.658855;0.665739;0.666304;0.673290;0.676815;0.675980;0.685515;0.686083;0.693059;0.694569;0.699015;0.705311;0.712622;0.707579;0.719525;0.716962;0.722570;0.723560;0.726481;0.732069;0.735056;0.737704;0.738281;0.742256;0.744391;0.749124;0.746179;0.743237;0.748850;0.754772;0.749196;0.754180;0.754364;0.756573;0.756765;0.762344;0.750504;0.759126;0.757760;0.755217;0.755404;0.752078;0.752114;0.752693;0.747924;0.752455;0.751668;0.751782;0.744482;0.743402;0.741939;0.747950;0.742577;0.736705;0.738751;0.734307;0.734721;0.731852;0.730112;0.729673;0.726534;0.725652;0.723431;0.718940;0.719595;0.714640;0.713527;0.712345;0.710796;0.705568;0.702931;0.710202;0.705971;0.699306;0.701557;0.696608;0.696104;0.695974;0.698910;0.689624;0.694120;0.688332;0.685797;0.682836;0.688154;0.685616;0.681589;0.682202;0.682794;0.674894;0.673521;0.672101;0.670905;0.665881;0.671895;0.663971;0.664997;0.663787;0.657391;0.657809;0.659169;0.652013;0.651992;0.644829;0.644134;0.642879;0.645713;0.636568;0.634748;0.631266;0.631031;0.633710;0.625333;0.623070;0.623177;0.619344;0.612039;0.608934;0.612326;0.603753;0.605213;0.600276;0.599806;0.595747;0.587944;0.590051;0.576954;0.579394;0.577632;0.574510;0.569419;0.570522;0.560556;0.562439;0.559420;0.552737;0.547785;0.546976;0.544764;0.545905;0.539514;0.542062;0.538047;0.529055;0.527351;0.531702;0.523196;0.526069;0.519295
0.506753;0.510381;0.510859;0.509130;0.513868;0.512366;0.510659;0.513719;0.518303;0.517120;0.518895;0.517604;0.517920;0.517600;0.526986;0.521951;0.518245;0.524832;0.524790;0.524048;0.523188;0.527406;0.532306;0.530106;0.531279;0.531871;0.529219;0.531553;0.533559;0.538140;0.535948;0.535171;0.533210;0.536908;0.537361;0.535333;0.536667;0.535988;0.542857;0.539202;0.542957;0.542985;0.547846;0.545848;0.542928;0.539355;0.540975;0.547895;0.543512;0.544056;0.547037;0.544901;0.542029;0.546311;0.541085;0.544155;0.542858;0.548150;0.552097;0.550053;0.544951;0.548524;0.549308;0.549141;0.554071;0.550118;0.553855;0.551812;0.551816;0.550473;0.556540;0.561565;0.563024;0.561131;0.563701;0.560567;0.572445;0.567392;0.578601;0.574364;0.578231;0.580427;0.582996;0.580935;0.583172;0.585092;0.592376;0.598494;0.597214;0.603716;0.606376;0.607564;0.611896;0.617154;0.618981;0.627018;0.626289;0.629840;0.639807;0.643344;0.646439;0.651594;0.656078;0.660935;0.660358;0.673377;0.676153;0.683715;0.691141;0.692244;0.695580;0.701520;0.705878;0.711350;0.713955;0.719082;0.726012;0.730440;0.738020;0.741023;0.745579;0.748466;0.753281;0.758824;0.765966;0.772847;0.772330;0.776338;0.780671;0.785702;0.790739;0.793660;0.801680;0.805483;0.807306;0.807989;0.815644;0.816273;0.820590;0.829694;0.829996;0.831853;0.838830;0.838734;0.844175;0.843115;0.847609;0.842847;0.847999;0.847499;0.850069;0.853137;0.853435;0.852249;0.846690;0.851618;0.846141;0.842718;0.844678;0.841368;0.837499;0.834007;0.834487;0.825779;0.825217;0.821382;0.808883;0.809366;0.805303;0.800387;0.793877;0.787175;0.773450;0.771161;0.762729;0.754582;0.749848;0.744954;0.733518;0.723131;0.722131;0.711016;0.701801;0.696592;0.687828;0.680227;0.674347;0.666691;0.656011;0.645057;0.643075;0.636344;0.630772;0.621292;0.616993;0.614634;0.605807;0.596976;0.586067;0.588580
0.524660;0.520594;0.523691;0.526267;0.522647;0.531030;0.529922;0.533954;0.535163;0.539380;0.537797;0.542854;0.543124;0.545074;0.547538;0.550614;0.553008;0.555971;0.551026;0.557950;0.554509;0.561601;0.564849;0.560504;0.566759;0.566618;0.568869;0.570361;0.572470;0.577210;0.572342;0.570611;0.577780;0.578121;0.583021;0.578728;0.582791;0.581300;0.584903;0.586512;0.588699;0.582804;0.584670;0.588649;0.583938;0.584573;0.590243;0.589477;0.588804;0.587512;0.583169;0.587822;0.592248;0.590350;0.590504;0.588989;0.587296;0.584586;0.582221;0.585695;0.589635;0.591362;0.587814;0.590154;0.596522;0.592060;0.588456;0.592108;0.595780;0.593417;0.599382;0.597941;0.598818;0.598789;0.605957;0.606430;0.614100;0.617219;0.616636;0.621995;0.626280;0.628900;0.633865;0.641380;0.646215;0.654782;0.657008;0.661457;0.668256;0.671544;0.676405;0.686981;0.690601;0.699750;0.708506;0.714872;0.721063;0.724463;0.734247;0.742376;0.742514;0.750107;0.754673;0.769911;0.765888;0.780149;0.782829;0.792163;0.799629;0.802433;0.807869;0.810561;0.814923;0.822501;0.822916;0.825272;0.827687;0.830445;0.836976;0.839233;0.838564;0.839602;0.841895;0.841114;0.840048;0.838107;0.838386;0.839385;0.840830;0.834136;0.833086;0.832296;0.825537;0.824233;0.820692;0.815931;0.814768;0.807600;0.802480;0.798897;0.796686;0.789111;0.783969;0.779770;0.774870;0.768991;0.768626;0.759908;0.753818;0.748678;0.736212;0.738815;0.731481;0.722805;0.721613;0.718797;0.711672;0.702793;0.700869;0.690174;0.688867;0.679914;0.677399;0.669359;0.675150;0.659871;0.655547;0.654395;0.647765;0.641394;0.633956;0.630767;0.625097;0.628879;0.615460;0.615775;0.608479;0.610016;0.597062;0.593887;0.591243;0.586965;0.587474;0.584761;0.578619;0.571880;0.566869;0.563925;0.565832;0.560385;0.558637;0.559377;0.552119;0.549054;0.551963;0.549710;0.540761;0.536282;0.538638;0.531581
0.575647;0.580030;0.595585;0.590106;0.598464;0.609794;0.609555;0.613807;0.623820;0.632736;0.636361;0.641576;0.654688;0.661329;0.662838;0.675348;0.675591;0.682273;0.693110;0.696344;0.711423;0.716141;0.722469;0.727262;0.733624;0.744371;0.746129;0.754577;0.761609;0.769281;0.774263;0.776737;0.784284;0.788674;0.793830;0.798799;0.805212;0.804424;0.807295;0.810439;0.813731;0.815649;0.818543;0.823387;0.819866;0.825011;0.822933;0.824002;0.827331;0.826390;0.829882;0.825651;0.819530;0.826092;0.819762;0.816120;0.814118;0.813533;0.805188;0.807538;0.806323;0.806136;0.803015;0.798943;0.794265;0.795201;0.785600;0.780563;0.777120;0.778236;0.777703;0.775257;0.763952;0.765822;0.764637;0.755533;0.752897;0.748613;0.747821;0.740876;0.739723;0.736028;0.730522;0.728816;0.724222;0.721869;0.716129;0.713284;0.710165;0.704105;0.696658;0.695391;0.696264;0.689042;0.689375;0.686302;0.682598;0.680157;0.675337;0.671187;0.669494;0.666180;0.664375;0.660621;0.658454;0.658802;0.651227;0.650667;0.644557;0.642185;0.640972;0.633678;0.634681;0.634961;0.626067;0.626725;0.619424;0.620475;0.615894;0.615530;0.612932;0.608525;0.604784;0.603948;0.601878;0.598599;0.594327;0.591392;0.590787;0.585307;0.592026;0.583234;0.579997;0.579830;0.577960;0.572417;0.573320;0.567513;0.563758;0.567315;0.563617;0.562426;0.560028;0.556097;0.551073;0.553819;0.545971;0.544175;0.543595;0.538931;0.545345;0.543511;0.537398;0.539696;0.534917;0.533901;0.531168;0.533007;0.527682;0.530883;0.524995;0.527482;0.522491;0.519743;0.519306;0.520416;0.515613;0.518516;0.516590;0.512010;0.518714;0.508869;0.510451;0.512104;0.509087;0.509541;0.507920;0.509264;0.504102;0.508195;0.506534;0.507651;0.500013;0.507468;0.503647;0.504318;0.506344;0.508685;0.500392;0.497220;0.500737;0.502269;0.502851;0.500386;0.507013;0.497431;0.505980;0.505719;0.497572;0.501332
0.529516;0.526597;0.532976;0.530600;0.536788;0.539233;0.535686;0.540796;0.543921;0.545861;0.551534;0.552270;0.557318;0.560002;0.559633;0.561772;0.561173;0.569645;0.571144;0.574159;0.577923;0.575940;0.577808;0.581406;0.587580;0.592319;0.593171;0.595810;0.597845;0.599891;0.598440;0.602427;0.601142;0.607224;0.606554;0.607771;0.605430;0.618219;0.614490;0.610834;0.619961;0.623293;0.619479;0.621373;0.621509;0.620653;0.620606;0.626985;0.626676;0.624699;0.626342;0.626504;0.623544;0.629344;0.631760;0.627651;0.622029;0.629246;0.632245;0.632457;0.630550;0.636036;0.631859;0.636686;0.637259;0.633673;0.638675;0.638865;0.642973;0.641196;0.643480;0.645349;0.646678;0.648814;0.654478;0.651347;0.649997;0.660601;0.662743;0.661912;0.663494;0.669445;0.671401;0.677873;0.680877;0.679426;0.689661;0.692002;0.696290;0.696968;0.703584;0.713113;0.718531;0.718798;0.719958;0.729123;0.731615;0.734978;0.740701;0.746149;0.750057;0.760423;0.762363;0.767123;0.772344;0.773519;0.778348;0.786801;0.790738;0.784839;0.784921;0.795484;0.798155;0.795739;0.801001;0.804552;0.805554;0.800940;0.804418;0.808506;0.806514;0.805988;0.804892;0.801515;0.801076;0.807793;0.800311;0.799044;0.797860;0.788569;0.786302;0.782688;0.777903;0.775275;0.775296;0.766085;0.763504;0.764002;0.755156;0.748989;0.744479;0.747347;0.738684;0.734170;0.724293;0.715927;0.707873;0.707563;0.706004;0.697721;0.690422;0.684308;0.683232;0.674529;0.665984;0.666210;0.661773;0.655241;0.648885;0.646849;0.640435;0.637904;0.632456;0.628170;0.621705;0.617030;0.617010;0.612947;0.605085;0.601590;0.599981;0.594453;0.589278;0.587482;0.583039;0.576660;0.577216;0.570913;0.570537;0.568998;0.558951;0.557519;0.555618;0.549464;0.552757;0.546730;0.544491;0.542319;0.542366;0.537151;0.531062;0.534926;0.529986;0.536161;0.529229;0.524438;0.527720;0.521550;0.520321;0.523159
0.530390;0.531088;0.538147;0.543651;0.547271;0.543848;0.550289;0.550722;0.557618;0.560950;0.559099;0.558022;0.565919;0.568073;0.572344;0.569812;0.579797;0.581202;0.586785;0.588418;0.591251;0.591899;0.600214;0.605069;0.609871;0.608016;0.613321;0.613315;0.615536;0.623727;0.624965;0.632070;0.623650;0.630317;0.638560;0.637231;0.641293;0.645046;0.645621;0.648721;0.651808;0.652293;0.652576;0.657970;0.658571;0.660862;0.656220;0.663115;0.661475;0.663000;0.669504;0.668148;0.665545;0.669265;0.670794;0.667155;0.673685;0.676113;0.664737;0.673128;0.673303;0.673193;0.671083;0.675635;0.679057;0.673328;0.674796;0.672688;0.677125;0.678491;0.675546;0.673954;0.677581;0.673781;0.675625;0.671631;0.678537;0.670717;0.678541;0.678982;0.674914;0.676077;0.676177;0.674371;0.676404;0.672854;0.676363;0.673253;0.674951;0.673468;0.673452;0.676555;0.672856;0.674933;0.672620;0.672664;0.672537;0.676314;0.672893;0.667982;0.670023;0.670892;0.671926;0.674379;0.674222;0.668967;0.670701;0.674566;0.673181;0.677548;0.678702;0.676403;0.676939;0.680795;0.679077;0.681770;0.681360;0.682707;0.678744;0.680369;0.685476;0.684199;0.685859;0.683071;0.684103;0.682867;0.687549;0.696147;0.690246;0.695861;0.693537;0.695297;0.699438;0.700535;0.697922;0.696653;0.705463;0.703259;0.706747;0.704121;0.707668;0.707614;0.712013;0.710804;0.710366;0.713388;0.710465;0.713697;0.712503;0.711393;0.713181;0.705762;0.711237;0.713568;0.710789;0.706541;0.705234;0.707458;0.707336;0.702918;0.701217;0.701578;0.696138;0.690595;0.691048;0.686824;0.687811;0.684125;0.678209;0.676333;0.674609;0.669062;0.665141;0.658535;0.659909;0.654353;0.642913;0.640766;0.637870;0.635783;0.625933;0.629925;0.620553;0.613846;0.608583;0.608739;0.600204;0.596111;0.592630;0.589979;0.592057;0.584115;0.580763;0.575775;0.564241;0.565120;0.561402;0.559098;0.555976;0.558251
0.534277;0.539326;0.538639;0.542199;0.545778;0.549152;0.553557;0.557514;0.559595;0.566821;0.564739;0.569579;0.575954;0.577009;0.581585;0.580870;0.588740;0.594533;0.590895;0.595779;0.604404;0.603017;0.612337;0.610781;0.615092;0.617551;0.627739;0.626711;0.632619;0.632119;0.634596;0.641614;0.639278;0.641053;0.644611;0.648266;0.654983;0.655231;0.655639;0.663885;0.658475;0.661124;0.666100;0.665930;0.666542;0.665304;0.666573;0.669241;0.673110;0.672202;0.670119;0.671220;0.670935;0.676672;0.670978;0.671706;0.672734;0.674508;0.671246;0.669808;0.675790;0.671888;0.671248;0.667490;0.675032;0.671782;0.668535;0.668051;0.663869;0.665747;0.663688;0.665688;0.662519;0.663511;0.655984;0.653339;0.651388;0.653445;0.646128;0.650116;0.647824;0.643807;0.639195;0.640369;0.637430;0.628667;0.632817;0.627908;0.633284;0.626215;0.623485;0.615453;0.616462;0.617954;0.610720;0.610620;0.605190;0.605141;0.609014;0.602707;0.601654;0.598995;0.599850;0.595821;0.590564;0.590054;0.590378;0.589665;0.596015;0.590793;0.590647;0.591902;0.587307;0.594525;0.596853;0.596154;0.595518;0.598961;0.601635;0.599421;0.604145;0.603118;0.606674;0.615961;0.617881;0.615386;0.626579;0.628482;0.633822;0.637699;0.635038;0.642466;0.648075;0.649919;0.662850;0.663239;0.673861;0.673654;0.679157;0.686680;0.692030;0.696298;0.703097;0.710176;0.710108;0.715267;0.718689;0.727516;0.729675;0.734364;0.736349;0.740539;0.738807;0.741745;0.745065;0.745716;0.745898;0.750290;0.749964;0.751089;0.745343;0.746895;0.744533;0.747460;0.744012;0.740605;0.738017;0.730342;0.731173;0.727956;0.722415;0.721100;0.714578;0.707412;0.705001;0.702281;0.692071;0.689973;0.684495;0.679264;0.670862;0.665728;0.661000;0.653841;0.649914;0.638595;0.629200;0.633907;0.617314;0.617010;0.612219;0.602868;0.599614;0.592086;0.583730;0.576565;0.573008;0.573986;0.570348;0.563821
0.523210;0.530464;0.534010;0.528162;0.528996;0.532087;0.534971;0.540970;0.537622;0.543113;0.545290;0.545729;0.550299;0.552914;0.556341;0.560239;0.557993;0.563345;0.566812;0.572025;0.572144;0.580076;0.585874;0.584331;0.587727;0.594947;0.598536;0.603998;0.608878;0.611252;0.615522;0.619378;0.625298;0.628399;0.635284;0.638063;0.640852;0.641632;0.650807;0.651498;0.659940;0.667114;0.671835;0.677278;0.673073;0.680847;0.688263;0.695461;0.704950;0.707657;0.714324;0.717010;0.722869;0.725084;0.735405;0.743050;0.737749;0.752933;0.749820;0.759697;0.762737;0.771480;0.773139;0.780060;0.781351;0.784393;0.786864;0.795466;0.794631;0.802395;0.801762;0.802242;0.807172;0.802208;0.811803;0.811336;0.809645;0.810440;0.812039;0.814067;0.808829;0.814301;0.810656;0.811634;0.807533;0.803695;0.802290;0.804313;0.797217;0.795335;0.790473;0.790882;0.781553;0.777670;0.775957;0.771020;0.764916;0.762953;0.757927;0.751827;0.744706;0.741671;0.735542;0.730936;0.730422;0.726066;0.713594;0.709327;0.704532;0.698302;0.694124;0.687782;0.686524;0.681652;0.675894;0.667483;0.672622;0.665126;0.659184;0.659898;0.656614;0.646536;0.651180;0.645532;0.642985;0.642364;0.643213;0.640611;0.636920;0.637823;0.634222;0.631647;0.629387;0.630433;0.624182;0.622488;0.628680;0.625641;0.624346;0.622581;0.626223;0.624136;0.621378;0.624206;0.620853;0.622457;0.625034;0.620864;0.616740;0.624114;0.620967;0.619986;0.617493;0.617873;0.616101;0.617328;0.615259;0.615291;0.615191;0.615120;0.608701;0.615077;0.610020;0.607293;0.608756;0.607949;0.599547;0.600805;0.594960;0.598476;0.592835;0.596936;0.591863;0.581420;0.586775;0.585095;0.585794;0.578816;0.579423;0.573760;0.571523;0.565422;0.571467;0.565410;0.562578;0.558110;0.555846;0.555360;0.552775;0.550384;0.549562;0.548595;0.540510;0.544443;0.541334;0.534538;0.531025;0.529674;0.531384;0.523494
0.554661;0.561203;0.563960;0.565879;0.570910;0.575096;0.581079;0.585087;0.593388;0.591962;0.598452;0.603048;0.609503;0.610067;0.619146;0.624062;0.629453;0.640815;0.636353;0.645293;0.650564;0.657966;0.663484;0.665522;0.670798;0.678356;0.679989;0.684211;0.686377;0.694826;0.693319;0.701080;0.704731;0.706311;0.706834;0.713833;0.715168;0.715025;0.719160;0.722187;0.720894;0.726683;0.724796;0.725810;0.728945;0.730727;0.725598;0.728169;0.722661;0.731026;0.722338;0.723423;0.726837;0.723237;0.724815;0.718461;0.717691;0.720603;0.714002;0.714716;0.708205;0.709536;0.702840;0.707840;0.706120;0.701004;0.703557;0.699105;0.695264;0.697391;0.689701;0.692678;0.691369;0.693179;0.690078;0.685673;0.692757;0.690237;0.690757;0.689087;0.695139;0.687165;0.687469;0.681305;0.691505;0.690828;0.690200;0.690662;0.686534;0.695463;0.696374;0.697900;0.699291;0.699020;0.705008;0.703736;0.703477;0.705968;0.709964;0.714540;0.713666;0.718675;0.719027;0.716154;0.723439;0.718485;0.722493;0.725073;0.726012;0.727502;0.729005;0.728138;0.726908;0.727666;0.730106;0.728794;0.730003;0.729282;0.726896;0.725566;0.727179;0.720406;0.719699;0.721518;0.717895;0.715653;0.716451;0.715477;0.706491;0.709194;0.704822;0.700664;0.693594;0.694676;0.686180;0.683366;0.680222;0.674486;0.668691;0.660724;0.665387;0.655926;0.649482;0.647654;0.642728;0.633385;0.633395;0.628139;0.621022;0.627901;0.616842;0.611232;0.606002;0.599146;0.599631;0.595629;0.591170;0.585621;0.583820;0.573590;0.575670;0.572611;0.569725;0.564668;0.559922;0.561478;0.553426;0.549500;0.551862;0.546603;0.545671;0.547620;0.540480;0.542548;0.538031;0.534955;0.539675;0.531775;0.530454;0.529379;0.525731;0.523631;0.524663;0.522133;0.521963;0.518190;0.517130;0.513143;0.521488;0.511070;0.515926;0.510516;0.512230;0.512182;0.506246;0.509611;0.509318;0.506397;0.505604;0.507766
0.514227;0.514807;0.519700;0.516072;0.522810;0.518860;0.521473;0.519300;0.521286;0.525445;0.523249;0.530293;0.527293;0.528444;0.528760;0.534025;0.528927;0.535680;0.542965;0.543839;0.539368;0.540579;0.545622;0.544319;0.550466;0.550323;0.550865;0.549978;0.556246;0.558356;0.559841;0.566592;0.559956;0.566863;0.570026;0.569330;0.576717;0.575071;0.581374;0.584232;0.583576;0.588183;0.590867;0.591231;0.598561;0.598541;0.601468;0.605844;0.610134;0.612599;0.614326;0.613581;0.626669;0.626115;0.628390;0.630901;0.629722;0.642269;0.642713;0.645802;0.648488;0.650456;0.653698;0.658371;0.661011;0.669934;0.671568;0.676053;0.676224;0.680426;0.683512;0.687744;0.693416;0.700772;0.696309;0.701510;0.705564;0.714250;0.709603;0.715847;0.719219;0.717622;0.720979;0.730929;0.727195;0.731619;0.734325;0.741064;0.741542;0.740189;0.745266;0.747716;0.756007;0.760036;0.756671;0.764391;0.766020;0.770439;0.769798;0.768137;0.774042;0.777182;0.775340;0.776553;0.778004;0.784776;0.782379;0.787420;0.784832;0.787976;0.791697;0.786486;0.786619;0.790820;0.787098;0.789300;0.785869;0.784582;0.789160;0.787817;0.785135;0.785594;0.783294;0.775220;0.778846;0.774621;0.772532;0.768707;0.770464;0.765574;0.765659;0.759009;0.760194;0.751833;0.751251;0.750064;0.741995;0.740871;0.742153;0.731796;0.726041;0.722750;0.720894;0.715341;0.714550;0.708365;0.708922;0.698754;0.694208;0.690912;0.686031;0.687840;0.679069;0.676333;0.671953;0.664279;0.660329;0.658941;0.654096;0.647370;0.643197;0.644159;0.634018;0.635201;0.629788;0.626809;0.624115;0.618281;0.615167;0.605725;0.606886;0.605664;0.599391;0.590711;0.593153;0.591459;0.584355;0.576999;0.578035;0.570377;0.569066;0.570243;0.562231;0.560124;0.554339;0.551910;0.553320;0.550558;0.545393;0.548021;0.541900;0.536491;0.538885;0.534428;0.531606;0.527254;0.526339;0.526632;0.527469;0.522744
0.557901;0.559911;0.565907;0.569761;0.574239;0.579016;0.580289;0.587520;0.591423;0.593783;0.606585;0.613629;0.616802;0.618684;0.625614;0.628856;0.632996;0.643923;0.649627;0.655034;0.655381;0.661949;0.673136;0.673877;0.678411;0.682923;0.686668;0.695917;0.700427;0.700746;0.705788;0.714501;0.717106;0.715090;0.721285;0.727870;0.735374;0.729884;0.737383;0.741621;0.734024;0.742603;0.747851;0.743924;0.748913;0.747279;0.750407;0.746623;0.748734;0.750909;0.746579;0.750854;0.750650;0.744051;0.744573;0.742707;0.746763;0.739318;0.742004;0.735169;0.738830;0.733639;0.734568;0.731909;0.729284;0.725310;0.720311;0.723981;0.714832;0.718875;0.713104;0.706614;0.714599;0.708156;0.703028;0.706661;0.698379;0.696974;0.689858;0.692353;0.686663;0.686635;0.681860;0.680788;0.681677;0.676113;0.676992;0.670911;0.669602;0.668408;0.667129;0.663683;0.661468;0.658069;0.656841;0.654270;0.654399;0.650566;0.646331;0.648323;0.644662;0.647371;0.647278;0.641845;0.636650;0.641856;0.641718;0.633668;0.633158;0.634453;0.634868;0.631479;0.631006;0.630643;0.624656;0.627875;0.627730;0.631359;0.626710;0.623226;0.629445;0.626734;0.624675;0.626084;0.622836;0.625887;0.627376;0.624722;0.623646;0.627790;0.626879;0.627907;0.632448;0.626923;0.621978;0.622966;0.626800;0.632716;0.627163;0.624966;0.624520;0.624772;0.626106;0.626693;0.626809;0.626539;0.633328;0.626303;0.626527;0.625414;0.623680;0.627963;0.627085;0.622574;0.625429;0.621752;0.624142;0.620354;0.621021;0.618093;0.617407;0.618460;0.615447;0.614957;0.608564;0.609901;0.605487;0.604414;0.600907;0.599979;0.598449;0.599254;0.591542;0.590296;0.585077;0.580515;0.579550;0.581669;0.575351;0.574968;0.571120;0.568986;0.561189;0.563483;0.559138;0.560868;0.555554;0.548899;0.546885;0.549565;0.542044;0.537348;0.532613;0.535505;0.531205;0.533980;0.531541;0.522990;0.520589;0.523355
