1100;1105;1110;1115;1120;1125;1130;1135;1140;1145;1150;1155;1160;1165;1170;1175;1180;1185;1190;1195;1200;1205;1210;1215;1220;1225;1230;1235;1240;1245;1250;1255;1260;1265;1270;1275;1280;1285;1290;1295;1301;1306;1311;1316;1321;1326;1331;1336;1341;1346;1351;1356;1361;1366;1371;1376;1381;1386;1391;1396;1401;1406;1411;1416;1421;1426;1431;1436;1441;1446;1451;1456;1461;1466;1471;1476;1481;1486;1491;1496;1502;1507;1512;1517;1522;1527;1532;1537;1542;1547;1552;1557;1562;1567;1572;1577;1582;1587;1592;1597;1602;1607;1612;1617;1622;1627;1632;1637;1642;1647;1652;1657;1662;1667;1672;1677;1682;1687;1692;1697;1703;1708;1713;1718;1723;1728;1733;1738;1743;1748;1753;1758;1763;1768;1773;1778;1783;1788;1793;1798;1803;1808;1813;1818;1823;1828;1833;1838;1843;1848;1853;1858;1863;1868;1873;1878;1883;1888;1893;1898;1904;1909;1914;1919;1924;1929;1934;1939;1944;1949;1954;1959;1964;1969;1974;1979;1984;1989;1994;1999;2004;2009;2014;2019;2024;2029;2034;2039;2044;2049;2054;2059;2064;2069;2074;2079;2084;2089;2094;2100
0.587990;0.591666;0.598963;0.602075;0.608333;0.617237;0.620084;0.623902;0.634373;0.643027;0.650619;0.658583;0.666358;0.672637;0.676807;0.680168;0.690158;0.701736;0.712453;0.710754;0.723279;0.729133;0.737049;0.749812;0.749058;0.759740;0.761241;0.768052;0.769143;0.779220;0.782218;0.789801;0.793950;0.797025;0.795717;0.804975;0.808522;0.806175;0.806849;0.809822;0.808524;0.813335;0.809042;0.810602;0.803945;0.808179;0.804324;0.804684;0.795285;0.798551;0.791971;0.783083;0.782592;0.777353;0.774994;0.770382;0.760020;0.756628;0.749838;0.740769;0.738774;0.733877;0.725417;0.722560;0.710398;0.703792;0.698184;0.690944;0.688469;0.682086;0.676877;0.672974;0.664783;0.658427;0.652136;0.652801;0.647188;0.639292;0.633326;0.635131;0.632052;0.624088;0.623575;0.618765;0.614784;0.614550;0.610667;0.608590;0.605284;0.600758;0.604423;0.599073;0.602179;0.602509;0.595748;0.596799;0.597985;0.600802;0.600312;0.599977;0.597050;0.599882;0.602509;0.605269;0.600901;0.605085;0.599807;0.602682;0.601847;0.604239;0.605087;0.605714;0.613820;0.611738;0.615533;0.612533;0.613443;0.615591;0.615344;0.616940;0.623981;0.621144;0.621851;0.627735;0.623608;0.619120;0.624218;0.628471;0.626292;0.630592;0.631770;0.627442;0.633189;0.634834;0.629222;0.629943;0.634384;0.635242;0.631319;0.632471;0.632711;0.636587;0.634673;0.633489;0.630194;0.637337;0.631907;0.634413;0.629867;0.635146;0.626398;0.632238;0.631393;0.631036;0.628265;0.627577;0.627568;0.623027;0.626068;0.622190;0.619958;0.620954;0.618369;0.614186;0.613855;0.613704;0.611240;0.606632;0.608261;0.605346;0.603990;0.596621;0.595021;0.589855;0.590067;0.586602;0.587999;0.583593;0.581966;0.578310;0.573141;0.573913;0.570333;0.563902;0.562287;0.562204;0.561237;0.559774;0.558939;0.552162;0.548909;0.548217;0.547292;0.544454;0.542844;0.541715;0.534223;0.535902;0.536750;0.527179
0.508288;0.504286;0.503184;0.504655;0.504804;0.504800;0.505790;0.506442;0.510564;0.504923;0.512514;0.512174;0.514630;0.513772;0.510856;0.511046;0.514599;0.510798;0.512624;0.518697;0.521232;0.518020;0.524132;0.526059;0.518509;0.526187;0.526626;0.528908;0.530241;0.533394;0.536049;0.538354;0.540927;0.542982;0.539263;0.542978;0.544619;0.552640;0.555402;0.555611;0.563889;0.562045;0.566123;0.569401;0.570940;0.574470;0.578381;0.582290;0.593326;0.595081;0.597079;0.598655;0.601528;0.606355;0.611831;0.616647;0.619343;0.624207;0.631325;0.631933;0.636932;0.638261;0.643846;0.648155;0.653001;0.654474;0.653543;0.667193;0.659108;0.665883;0.672774;0.671242;0.671941;0.671116;0.675191;0.676344;0.683322;0.681613;0.685410;0.683653;0.682920;0.691115;0.688397;0.683040;0.688388;0.684685;0.685274;0.684627;0.682136;0.682747;0.681912;0.681391;0.680037;0.679115;0.673133;0.676991;0.676225;0.669572;0.671524;0.670770;0.666680;0.662572;0.663000;0.663303;0.664251;0.659420;0.657990;0.660644;0.652397;0.652505;0.653595;0.659125;0.659548;0.651351;0.660213;0.661711;0.659552;0.662156;0.659776;0.657524;0.666813;0.665935;0.676082;0.670783;0.679839;0.679873;0.682447;0.688799;0.687237;0.691745;0.698890;0.703110;0.707635;0.706800;0.718204;0.715924;0.726424;0.730091;0.739358;0.737821;0.745668;0.747510;0.756409;0.758667;0.760267;0.767663;0.772370;0.780392;0.777995;0.780320;0.782189;0.792530;0.786535;0.786168;0.796934;0.790316;0.793290;0.792833;0.791450;0.793257;0.788411;0.787484;0.787038;0.786861;0.782499;0.780663;0.776847;0.776614;0.771257;0.770106;0.762886;0.754978;0.753254;0.743688;0.741738;0.728689;0.726493;0.718748;0.712442;0.706987;0.700610;0.689373;0.688144;0.676300;0.677482;0.664137;0.659283;0.651932;0.642538;0.639906;0.628213;0.623508;0.619280;0.609891;0.608394;0.602024;0.591763;0.589496;0.581350;0.580540
0.529838;0.527763;0.535723;0.535171;0.534550;0.536555;0.544209;0.542399;0.544366;0.555031;0.546728;0.555543;0.551072;0.556981;0.559533;0.559808;0.571836;0.566160;0.577640;0.578711;0.576759;0.582953;0.589194;0.590388;0.586071;0.598154;0.598825;0.600385;0.608207;0.612446;0.607697;0.618453;0.618183;0.618601;0.624567;0.629933;0.633632;0.630019;0.636351;0.642032;0.643654;0.647676;0.645878;0.654282;0.653403;0.656559;0.658753;0.664152;0.668789;0.672075;0.670412;0.674099;0.677763;0.679597;0.677433;0.686390;0.691022;0.694985;0.694288;0.691689;0.698807;0.699865;0.698800;0.702881;0.700923;0.703347;0.710117;0.712676;0.712882;0.715418;0.717731;0.721686;0.719115;0.723809;0.720057;0.722339;0.726916;0.729372;0.733630;0.733278;0.731318;0.735597;0.735770;0.734566;0.737199;0.736783;0.737845;0.739939;0.738542;0.735737;0.744065;0.733335;0.737736;0.740195;0.742552;0.740308;0.741276;0.738670;0.736067;0.737768;0.739091;0.741371;0.740682;0.736995;0.740366;0.738216;0.741916;0.740878;0.737113;0.737655;0.740386;0.736367;0.733718;0.732676;0.735643;0.732215;0.728251;0.728586;0.729710;0.726031;0.723630;0.722019;0.717913;0.716368;0.712738;0.714176;0.715059;0.710961;0.710141;0.706971;0.706097;0.701649;0.701189;0.696874;0.700204;0.693275;0.688951;0.686850;0.679681;0.679702;0.679567;0.677246;0.674116;0.676620;0.665072;0.666543;0.664235;0.658987;0.658059;0.655450;0.650830;0.649868;0.650185;0.644830;0.643451;0.643868;0.634400;0.633806;0.627977;0.625749;0.625926;0.620944;0.622545;0.613194;0.614183;0.607946;0.606328;0.601312;0.601681;0.592283;0.594608;0.588886;0.590399;0.586634;0.580877;0.572667;0.574066;0.573301;0.569434;0.567318;0.560242;0.561944;0.557047;0.558582;0.551478;0.552376;0.545449;0.550776;0.543809;0.540916;0.539661;0.534532;0.535310;0.532802;0.529616;0.531371;0.526952;0.527153;0.522966;0.523232
0.558849;0.562083;0.564770;0.568206;0.571036;0.578797;0.578927;0.582882;0.588801;0.596167;0.600634;0.607339;0.614195;0.612923;0.619993;0.628502;0.634359;0.634533;0.639306;0.646433;0.652009;0.653208;0.663395;0.664061;0.671537;0.674624;0.680846;0.683509;0.690335;0.696893;0.695641;0.706414;0.707870;0.711384;0.711811;0.714675;0.723749;0.721581;0.723485;0.723876;0.725296;0.726379;0.728266;0.735135;0.734418;0.735961;0.731607;0.731442;0.736015;0.733418;0.731582;0.732112;0.732873;0.733215;0.727669;0.730048;0.726099;0.722093;0.729220;0.720919;0.721452;0.718064;0.721055;0.716806;0.711684;0.711646;0.705692;0.708029;0.710184;0.706821;0.703679;0.706582;0.698297;0.699476;0.702514;0.695925;0.694887;0.701904;0.699726;0.690457;0.698482;0.690221;0.690738;0.691651;0.699863;0.694740;0.697374;0.693418;0.692206;0.695233;0.694265;0.698631;0.695434;0.694401;0.701388;0.695618;0.694586;0.703382;0.701315;0.704210;0.704183;0.706410;0.705602;0.702051;0.703691;0.707942;0.704187;0.707930;0.708929;0.707391;0.703973;0.709597;0.713511;0.712155;0.708949;0.709075;0.706131;0.709930;0.709594;0.708390;0.703071;0.699316;0.701292;0.700068;0.696388;0.700368;0.701285;0.696100;0.691403;0.687777;0.684724;0.682317;0.679621;0.678640;0.676730;0.670083;0.670003;0.663980;0.666835;0.658772;0.653687;0.646526;0.648472;0.645663;0.641933;0.643227;0.635948;0.630857;0.628409;0.623838;0.622323;0.616241;0.611359;0.607609;0.604825;0.602311;0.601088;0.597860;0.594017;0.588580;0.585846;0.590907;0.581224;0.579734;0.579244;0.572937;0.575955;0.571071;0.566632;0.559789;0.560089;0.561845;0.559098;0.553307;0.550107;0.554621;0.541551;0.547878;0.542725;0.541143;0.541105;0.535450;0.540531;0.537569;0.529990;0.529056;0.532535;0.528311;0.531881;0.528978;0.527676;0.526174;0.523992;0.520870;0.517584;0.517835;0.516919;0.516875;0.514474;0.511982
0.524827;0.527478;0.527450;0.536864;0.536532;0.541353;0.540624;0.541435;0.547057;0.541889;0.551213;0.552580;0.554367;0.560009;0.566802;0.564586;0.563799;0.570688;0.567900;0.573566;0.573680;0.576147;0.583315;0.584079;0.592084;0.591713;0.588669;0.595936;0.598166;0.601788;0.602141;0.599778;0.606623;0.611139;0.614620;0.611687;0.614671;0.619471;0.618855;0.619564;0.624954;0.631957;0.624500;0.626794;0.627211;0.630217;0.630415;0.630216;0.631225;0.631363;0.633313;0.629844;0.634644;0.630708;0.631190;0.633419;0.632291;0.629815;0.639183;0.634490;0.633289;0.633721;0.630822;0.632396;0.631149;0.634392;0.630333;0.630765;0.627818;0.631414;0.631239;0.630696;0.631490;0.626146;0.627230;0.624223;0.631595;0.624978;0.623224;0.629559;0.620284;0.626648;0.626762;0.624127;0.624475;0.626956;0.626192;0.625042;0.624236;0.623159;0.623918;0.628151;0.626504;0.624645;0.626070;0.625560;0.627434;0.627339;0.623700;0.627774;0.628701;0.630278;0.627626;0.633085;0.626848;0.632694;0.634916;0.635333;0.636385;0.636815;0.640824;0.642158;0.641569;0.640861;0.650381;0.649967;0.652482;0.654355;0.657834;0.666208;0.662293;0.660532;0.673719;0.673293;0.674001;0.681221;0.684955;0.690591;0.692841;0.694738;0.697862;0.702563;0.703132;0.714672;0.713338;0.720377;0.717483;0.720745;0.729288;0.733926;0.737295;0.740416;0.744758;0.750890;0.751401;0.752076;0.759066;0.758278;0.765116;0.762871;0.764930;0.767870;0.762702;0.769288;0.767758;0.768089;0.765911;0.768240;0.767844;0.764405;0.764771;0.760173;0.758089;0.759344;0.754572;0.754259;0.749015;0.740972;0.739059;0.736746;0.727982;0.723168;0.721852;0.716449;0.709866;0.700777;0.696346;0.689112;0.689639;0.678862;0.676311;0.672208;0.661601;0.656020;0.644576;0.647757;0.634850;0.633685;0.623598;0.616477;0.615466;0.607279;0.598136;0.592338;0.585626;0.583803;0.580145;0.573704;0.565563;0.567669
0.527314;0.528215;0.525155;0.531241;0.531890;0.533909;0.534053;0.538167;0.535620;0.540488;0.543012;0.543782;0.544043;0.549891;0.552146;0.552729;0.556658;0.557137;0.561308;0.563996;0.567402;0.565841;0.569056;0.572129;0.573943;0.577296;0.576370;0.579339;0.577255;0.582620;0.587300;0.587503;0.588891;0.588527;0.594055;0.591377;0.593184;0.585957;0.591934;0.594960;0.594017;0.599143;0.595869;0.599858;0.602452;0.598145;0.596952;0.601123;0.596729;0.599504;0.596214;0.600119;0.602042;0.600579;0.597417;0.608390;0.606485;0.603069;0.604062;0.604678;0.604586;0.602781;0.605428;0.604381;0.609443;0.608694;0.610163;0.610066;0.614097;0.609335;0.618139;0.618401;0.623327;0.620382;0.625885;0.633480;0.631374;0.635056;0.641028;0.646786;0.649937;0.655656;0.654633;0.662786;0.667242;0.676070;0.682614;0.686425;0.695572;0.700990;0.710046;0.715575;0.719104;0.728173;0.737046;0.741745;0.752364;0.752769;0.759761;0.765420;0.776602;0.783069;0.789957;0.797751;0.800078;0.803693;0.812369;0.821652;0.819281;0.827518;0.830137;0.835740;0.842850;0.841886;0.842065;0.848444;0.851965;0.856356;0.855940;0.848845;0.858366;0.853535;0.851840;0.854649;0.850789;0.850522;0.844989;0.845930;0.836551;0.838242;0.833009;0.830198;0.821132;0.815622;0.807099;0.803844;0.795947;0.793351;0.784787;0.780103;0.772655;0.765685;0.759202;0.746772;0.743396;0.740815;0.730818;0.719528;0.713366;0.704510;0.701305;0.691952;0.685926;0.677421;0.669989;0.669976;0.662137;0.655413;0.643528;0.642491;0.632356;0.628107;0.623454;0.618123;0.610790;0.607855;0.604151;0.597654;0.590997;0.586119;0.582962;0.579437;0.578304;0.572362;0.569250;0.564879;0.563461;0.559027;0.557484;0.550087;0.549052;0.552207;0.541437;0.540794;0.538752;0.535367;0.535334;0.534397;0.528016;0.526916;0.526802;0.526314;0.523993;0.521547;0.518450;0.520564;0.520257;0.510257;0.512850;0.509318
0.537649;0.540507;0.545784;0.549583;0.549492;0.554213;0.558980;0.557120;0.563805;0.569018;0.571054;0.574947;0.579304;0.584197;0.593122;0.592850;0.596269;0.600476;0.605712;0.607698;0.617928;0.623553;0.624352;0.627557;0.627245;0.630174;0.637315;0.637553;0.647603;0.656709;0.656827;0.657225;0.657559;0.667426;0.671722;0.678669;0.672859;0.682955;0.685071;0.690299;0.693613;0.692450;0.698599;0.702959;0.704362;0.706037;0.705989;0.710758;0.712420;0.717706;0.715456;0.713713;0.722653;0.722429;0.732507;0.729729;0.728460;0.732750;0.728871;0.732269;0.732709;0.736413;0.733894;0.735883;0.738226;0.737934;0.747233;0.746213;0.742068;0.744920;0.743074;0.748721;0.746266;0.746114;0.745592;0.746502;0.750111;0.752788;0.745449;0.748867;0.751786;0.744534;0.748704;0.750019;0.740708;0.744576;0.744480;0.741752;0.743836;0.742175;0.739441;0.740613;0.738251;0.738031;0.737391;0.732711;0.733169;0.732517;0.728094;0.729111;0.727352;0.727144;0.728434;0.722953;0.723761;0.721945;0.715856;0.719574;0.714761;0.718159;0.714285;0.707333;0.705943;0.708642;0.704803;0.705989;0.698939;0.697515;0.693680;0.691172;0.689302;0.688401;0.687055;0.683281;0.683386;0.679060;0.684115;0.674401;0.678260;0.670386;0.672966;0.668866;0.664212;0.663580;0.661548;0.656759;0.656689;0.656275;0.654150;0.644026;0.645499;0.642685;0.638779;0.637055;0.637468;0.639539;0.631939;0.632144;0.628841;0.626629;0.623582;0.617732;0.619208;0.610440;0.611465;0.612328;0.609123;0.607782;0.598192;0.602041;0.598648;0.595511;0.592957;0.592556;0.591542;0.582308;0.585783;0.588076;0.582492;0.576936;0.582214;0.570589;0.570110;0.569310;0.565514;0.568690;0.559491;0.557635;0.560334;0.558084;0.554394;0.549539;0.550149;0.550530;0.545952;0.543359;0.537616;0.546771;0.537852;0.535439;0.537946;0.531903;0.528966;0.529933;0.530568;0.528374;0.524159;0.523845;0.522965;0.523851
0.568376;0.571512;0.573881;0.573930;0.583238;0.593877;0.593651;0.603722;0.604340;0.615380;0.621610;0.625305;0.628996;0.633962;0.640061;0.652486;0.656233;0.662755;0.665349;0.673864;0.678046;0.683696;0.687367;0.698777;0.702591;0.711063;0.719548;0.719539;0.725789;0.733360;0.740136;0.742311;0.750523;0.748699;0.756686;0.758261;0.759571;0.769697;0.775321;0.772273;0.776759;0.779652;0.780835;0.782117;0.786808;0.790815;0.787294;0.787518;0.790477;0.793745;0.793266;0.792050;0.793385;0.792231;0.788587;0.791295;0.792165;0.789795;0.786634;0.785620;0.781387;0.781684;0.778903;0.781418;0.783748;0.781199;0.775566;0.771431;0.772569;0.765053;0.762424;0.760520;0.762062;0.754624;0.754349;0.748934;0.746315;0.742986;0.741810;0.737709;0.731393;0.729379;0.727704;0.724300;0.716938;0.720015;0.713529;0.705508;0.706910;0.697683;0.704581;0.692730;0.693875;0.691047;0.682896;0.683058;0.685404;0.671691;0.667080;0.664793;0.668221;0.662144;0.658771;0.653960;0.649422;0.649897;0.649304;0.641684;0.638296;0.638162;0.636470;0.630402;0.624491;0.627654;0.623791;0.616969;0.617663;0.612964;0.616656;0.611625;0.610800;0.604586;0.607591;0.602986;0.592747;0.599503;0.600628;0.599104;0.594661;0.592086;0.593724;0.594323;0.589829;0.592488;0.589785;0.588179;0.589069;0.586404;0.584094;0.583733;0.581822;0.582610;0.581206;0.576268;0.579345;0.579095;0.579766;0.577956;0.576086;0.575854;0.575674;0.577204;0.573813;0.573951;0.573432;0.570674;0.567497;0.566499;0.568955;0.562385;0.559574;0.564184;0.564357;0.560195;0.554275;0.559056;0.558634;0.561228;0.555312;0.554039;0.554812;0.551918;0.547980;0.545592;0.545737;0.544988;0.544711;0.532626;0.542104;0.538923;0.539475;0.535543;0.534119;0.530129;0.530467;0.527725;0.523432;0.526294;0.523925;0.523037;0.520797;0.517898;0.517754;0.517049;0.516262;0.517345;0.510436;0.509528;0.512867;0.506898
0.516304;0.525026;0.527661;0.523945;0.530545;0.531383;0.533243;0.532200;0.540435;0.538430;0.538853;0.540870;0.541738;0.546518;0.546728;0.542876;0.550886;0.551850;0.556256;0.561218;0.561072;0.560622;0.565903;0.569134;0.569907;0.568235;0.571943;0.575026;0.577995;0.578682;0.583457;0.586404;0.586452;0.586401;0.589066;0.590647;0.590514;0.599150;0.597216;0.597542;0.600681;0.600187;0.603133;0.604810;0.605010;0.604122;0.605587;0.602447;0.605919;0.606458;0.606570;0.609642;0.613660;0.609280;0.611172;0.618247;0.612935;0.615328;0.616705;0.615874;0.616759;0.613882;0.619275;0.617079;0.613774;0.615358;0.618265;0.616114;0.621762;0.617625;0.618133;0.617152;0.618193;0.621630;0.622368;0.622393;0.621974;0.619990;0.621576;0.617458;0.621465;0.623631;0.624922;0.625189;0.623617;0.627304;0.621406;0.625569;0.625026;0.624279;0.621329;0.623580;0.624447;0.625283;0.624447;0.626849;0.628202;0.626772;0.629160;0.629661;0.631191;0.634199;0.635405;0.634091;0.638573;0.641840;0.640832;0.642538;0.647004;0.648977;0.647898;0.648542;0.657173;0.654851;0.660619;0.657175;0.665186;0.663642;0.670777;0.672101;0.677190;0.679082;0.684110;0.686124;0.687422;0.695314;0.701768;0.702180;0.705176;0.713220;0.723793;0.716499;0.726470;0.729868;0.735801;0.742813;0.743866;0.747062;0.753272;0.755985;0.756984;0.764517;0.770662;0.772525;0.776615;0.779315;0.784199;0.781637;0.784342;0.789926;0.793787;0.793600;0.794289;0.796669;0.793839;0.793622;0.799110;0.800498;0.796203;0.795190;0.793518;0.791197;0.789623;0.787945;0.783672;0.778931;0.775035;0.769124;0.763539;0.758609;0.753111;0.755494;0.751781;0.740996;0.728086;0.727904;0.722000;0.720601;0.713816;0.706835;0.697865;0.689777;0.681303;0.678446;0.669524;0.664900;0.648759;0.643863;0.642370;0.637195;0.624642;0.617766;0.615280;0.609533;0.603587;0.598143;0.595881;0.588539;0.585835;0.577447
0.514590;0.518233;0.516369;0.516828;0.521185;0.517627;0.523822;0.517215;0.522015;0.528926;0.526528;0.526273;0.525852;0.532250;0.531241;0.529769;0.540155;0.536715;0.536286;0.540979;0.541109;0.545303;0.544895;0.547975;0.549876;0.553275;0.547241;0.549647;0.553023;0.559250;0.559838;0.554968;0.560656;0.561898;0.565232;0.559466;0.568064;0.567364;0.569149;0.571495;0.569792;0.575733;0.575660;0.572464;0.574617;0.580361;0.579930;0.580145;0.578486;0.579874;0.585706;0.582417;0.582250;0.583115;0.588494;0.587228;0.589736;0.593037;0.594932;0.592137;0.592922;0.596711;0.596386;0.604959;0.608314;0.606765;0.603171;0.605042;0.610037;0.612306;0.610783;0.616294;0.617563;0.617185;0.625750;0.621984;0.626505;0.623720;0.630520;0.635456;0.639603;0.633388;0.643299;0.647574;0.650886;0.655402;0.655507;0.662655;0.665312;0.668431;0.675774;0.678778;0.683045;0.685139;0.689501;0.695561;0.695079;0.708807;0.705860;0.713059;0.712924;0.718700;0.725525;0.720705;0.731649;0.732221;0.738432;0.738219;0.744941;0.752180;0.755207;0.761304;0.767738;0.762001;0.767359;0.771938;0.772329;0.768725;0.774806;0.777695;0.782118;0.781070;0.777548;0.782900;0.784861;0.783846;0.785976;0.786449;0.784502;0.789646;0.790114;0.786872;0.790555;0.789846;0.784327;0.783856;0.784503;0.780863;0.781069;0.784080;0.774371;0.779319;0.769843;0.775000;0.767950;0.763319;0.764599;0.758840;0.761712;0.760853;0.756005;0.746884;0.751211;0.743846;0.742032;0.740554;0.735584;0.727457;0.729278;0.727191;0.714445;0.716183;0.709682;0.708632;0.706199;0.701062;0.693647;0.691310;0.684080;0.679888;0.678006;0.671822;0.664005;0.661833;0.655700;0.653825;0.647106;0.640221;0.634724;0.627717;0.627120;0.624160;0.620830;0.613262;0.601669;0.601355;0.595129;0.587655;0.588022;0.579041;0.580024;0.575730;0.567565;0.563565;0.560680;0.551865;0.555322;0.551216;0.547424;0.542644
0.506834;0.507260;0.511991;0.507941;0.507755;0.510015;0.509950;0.509190;0.511295;0.513437;0.517040;0.519345;0.520007;0.519914;0.521281;0.519082;0.526122;0.520273;0.525481;0.527272;0.524786;0.529165;0.527524;0.530383;0.531561;0.530541;0.528403;0.531030;0.530298;0.533475;0.539021;0.542766;0.537153;0.540956;0.540177;0.538046;0.549617;0.547410;0.548360;0.550268;0.546492;0.551549;0.552184;0.558238;0.555037;0.559623;0.563934;0.563790;0.561726;0.567520;0.565956;0.567646;0.567854;0.570048;0.578674;0.568312;0.573146;0.577026;0.579106;0.577791;0.578663;0.586587;0.581277;0.589115;0.585728;0.590086;0.588555;0.589564;0.592998;0.591631;0.593671;0.596457;0.594956;0.596252;0.594814;0.599006;0.601138;0.596441;0.597871;0.598704;0.605512;0.597530;0.601924;0.603707;0.605502;0.603451;0.601994;0.605877;0.601467;0.604031;0.603564;0.606440;0.603216;0.606182;0.601142;0.606408;0.602121;0.610537;0.606501;0.605592;0.608603;0.613054;0.612406;0.614577;0.616379;0.613694;0.617547;0.617564;0.615722;0.625867;0.625180;0.627065;0.633598;0.638562;0.641927;0.639092;0.644386;0.645564;0.652495;0.662384;0.664120;0.674648;0.671037;0.679282;0.681014;0.691256;0.693943;0.705597;0.707356;0.717262;0.723337;0.735571;0.738045;0.747985;0.748688;0.760850;0.767354;0.766922;0.785572;0.791262;0.793151;0.803189;0.810296;0.817474;0.820883;0.827670;0.836173;0.837248;0.846044;0.845630;0.850869;0.854938;0.858246;0.859335;0.865765;0.867260;0.870154;0.865168;0.867782;0.866507;0.863869;0.866020;0.863622;0.855506;0.853402;0.851351;0.852926;0.844504;0.842425;0.836276;0.828730;0.818034;0.819404;0.810408;0.802551;0.792588;0.788027;0.777622;0.772298;0.764248;0.755588;0.742591;0.740226;0.725657;0.718392;0.710043;0.703895;0.697256;0.680349;0.679195;0.667929;0.659240;0.650979;0.642756;0.634972;0.624062;0.621914;0.617284;0.606695;0.601726
0.559975;0.566140;0.573575;0.577886;0.578346;0.587104;0.592304;0.597165;0.595825;0.604131;0.610342;0.619765;0.621294;0.627339;0.631980;0.639614;0.643968;0.649241;0.655950;0.662864;0.668363;0.671885;0.678347;0.685078;0.691637;0.695025;0.697702;0.704660;0.712143;0.710475;0.718626;0.719243;0.724803;0.729325;0.732044;0.734335;0.737351;0.740290;0.741441;0.746420;0.747144;0.749300;0.749198;0.749882;0.749762;0.752153;0.749621;0.751208;0.747053;0.752100;0.749914;0.744518;0.745067;0.741599;0.736314;0.736212;0.740063;0.737052;0.732719;0.728488;0.724394;0.723783;0.714701;0.715169;0.709831;0.711883;0.703146;0.699353;0.697544;0.697383;0.692138;0.686338;0.687179;0.681110;0.676705;0.674996;0.671993;0.671833;0.664423;0.660747;0.657116;0.658607;0.655808;0.646619;0.646169;0.647445;0.642515;0.642375;0.640044;0.636266;0.636683;0.630141;0.629811;0.624261;0.625916;0.629248;0.623892;0.623518;0.624205;0.620329;0.621393;0.616894;0.615628;0.620397;0.612926;0.620284;0.611901;0.613907;0.613096;0.614825;0.609286;0.611092;0.614465;0.612749;0.616257;0.615316;0.618780;0.616098;0.616138;0.611048;0.616531;0.618317;0.620950;0.615742;0.622592;0.621392;0.625067;0.626380;0.627219;0.626192;0.627981;0.635261;0.633099;0.632753;0.636256;0.638105;0.642681;0.641025;0.640285;0.638678;0.647394;0.645821;0.645864;0.648525;0.650181;0.650742;0.652424;0.654507;0.653096;0.658173;0.658266;0.655813;0.657338;0.653908;0.654733;0.656379;0.652574;0.655376;0.654152;0.658806;0.650208;0.648950;0.649021;0.649561;0.646108;0.648373;0.641847;0.639796;0.637649;0.636362;0.634781;0.630292;0.628507;0.622680;0.617301;0.616752;0.609387;0.608977;0.609665;0.602396;0.601830;0.596710;0.595700;0.584995;0.580288;0.584262;0.577199;0.581172;0.568077;0.568303;0.564763;0.556839;0.556914;0.559008;0.548076;0.550905;0.547826;0.544275;0.537544;0.536740
0.518487;0.517010;0.516292;0.518760;0.520862;0.522446;0.525729;0.524283;0.526838;0.528135;0.531418;0.533908;0.531813;0.534017;0.535832;0.544403;0.541246;0.543870;0.546063;0.547039;0.547799;0.554467;0.553986;0.551723;0.558857;0.564937;0.560359;0.567716;0.565061;0.570174;0.572284;0.574598;0.581525;0.583277;0.587428;0.586152;0.591683;0.589872;0.595112;0.598682;0.597658;0.599190;0.607605;0.607196;0.611629;0.611694;0.612679;0.621080;0.622147;0.627135;0.630608;0.632526;0.636517;0.635802;0.634441;0.636493;0.646446;0.648206;0.651229;0.652047;0.656908;0.655950;0.658659;0.663303;0.659454;0.667116;0.668042;0.675383;0.674284;0.674089;0.679304;0.682331;0.685665;0.682041;0.687062;0.689000;0.689992;0.688765;0.687683;0.695423;0.691305;0.699045;0.701579;0.697588;0.696389;0.700872;0.704869;0.697607;0.697455;0.705126;0.702469;0.700201;0.702950;0.705069;0.705799;0.701351;0.703290;0.703052;0.702150;0.706592;0.703890;0.704679;0.707237;0.701627;0.705882;0.706188;0.705099;0.702324;0.701867;0.704364;0.703357;0.707790;0.707978;0.706424;0.705837;0.704723;0.708099;0.708160;0.709339;0.708055;0.713809;0.713025;0.713495;0.714092;0.714864;0.713120;0.719435;0.722079;0.719479;0.718435;0.719089;0.722125;0.720683;0.721788;0.720898;0.725261;0.725781;0.725283;0.728592;0.729735;0.730696;0.728446;0.731696;0.730018;0.732182;0.734558;0.732942;0.729482;0.735557;0.737421;0.736637;0.732787;0.730474;0.732140;0.730433;0.729313;0.730126;0.726611;0.724395;0.724028;0.718457;0.711843;0.717991;0.711602;0.708704;0.706159;0.701381;0.700717;0.697655;0.689459;0.688137;0.679874;0.675454;0.673182;0.672058;0.667792;0.659474;0.655142;0.650598;0.643247;0.633077;0.634836;0.631447;0.624396;0.624965;0.612280;0.610586;0.605285;0.601252;0.598070;0.592910;0.590980;0.582077;0.578107;0.578438;0.575913;0.565989;0.566928;0.560270;0.560047
0.539029;0.541866;0.547024;0.542584;0.551143;0.551434;0.549934;0.556057;0.565969;0.564789;0.572338;0.569048;0.574581;0.580395;0.582918;0.587458;0.591236;0.592465;0.595444;0.596316;0.598861;0.600882;0.606110;0.611288;0.614509;0.616294;0.621222;0.618558;0.629241;0.629742;0.632507;0.634279;0.635595;0.640028;0.640664;0.640186;0.644717;0.642129;0.639159;0.645255;0.643210;0.644962;0.647786;0.644356;0.645741;0.647594;0.645889;0.647061;0.645608;0.643576;0.640193;0.639933;0.642021;0.641339;0.642679;0.645034;0.639679;0.637460;0.638928;0.634132;0.635471;0.634935;0.629089;0.631539;0.631006;0.629548;0.633329;0.624623;0.627514;0.628686;0.626733;0.629566;0.626908;0.627241;0.632389;0.630002;0.631429;0.639934;0.639593;0.640367;0.646019;0.647184;0.652026;0.657543;0.658385;0.664097;0.666559;0.670226;0.677522;0.678634;0.686430;0.693668;0.701019;0.707167;0.710460;0.718595;0.726468;0.727762;0.734505;0.741361;0.746738;0.747952;0.757433;0.762425;0.769543;0.774249;0.781223;0.784623;0.788809;0.793981;0.797854;0.800391;0.804147;0.804427;0.809127;0.814233;0.815911;0.819765;0.816830;0.816486;0.823893;0.814616;0.819097;0.815968;0.810532;0.815542;0.807043;0.809042;0.803624;0.800770;0.796573;0.794484;0.789014;0.784155;0.777990;0.769086;0.773419;0.763110;0.756469;0.752057;0.746277;0.736307;0.735044;0.725519;0.718786;0.708596;0.707837;0.699249;0.696888;0.685619;0.680960;0.673222;0.663695;0.660189;0.656929;0.649958;0.643952;0.642136;0.636912;0.623077;0.624568;0.617730;0.603831;0.604477;0.602535;0.597868;0.591212;0.593509;0.586843;0.581976;0.574332;0.567939;0.566450;0.568891;0.560276;0.560462;0.555654;0.551144;0.547602;0.549937;0.542789;0.541315;0.540672;0.535370;0.539413;0.534461;0.533054;0.535855;0.533387;0.527664;0.527891;0.522899;0.521839;0.519503;0.517972;0.518904;0.518019;0.517945;0.515002;0.515737
0.504262;0.507576;0.505325;0.502447;0.503511;0.500446;0.503086;0.504610;0.510029;0.504689;0.505557;0.508593;0.508241;0.512913;0.510648;0.513184;0.511038;0.510538;0.505636;0.515815;0.511638;0.510476;0.512496;0.515032;0.517318;0.519208;0.522915;0.525426;0.519839;0.525722;0.527500;0.530303;0.532358;0.533521;0.538419;0.534602;0.540830;0.544824;0.547410;0.548900;0.554095;0.553938;0.560842;0.563651;0.564022;0.567476;0.574285;0.572542;0.580282;0.585781;0.588397;0.592070;0.594681;0.604846;0.608275;0.606861;0.617404;0.620206;0.627325;0.631347;0.632964;0.636837;0.643153;0.648691;0.649310;0.661922;0.659442;0.663115;0.668886;0.667044;0.675197;0.677107;0.681162;0.684585;0.688212;0.690341;0.687326;0.696905;0.698290;0.695538;0.702632;0.704868;0.708650;0.703384;0.707843;0.710401;0.710885;0.710696;0.714852;0.712280;0.711629;0.710795;0.714515;0.712933;0.714754;0.719995;0.710535;0.712134;0.711928;0.718089;0.712496;0.711968;0.716157;0.713510;0.711194;0.713887;0.715987;0.712836;0.713216;0.711784;0.712057;0.710510;0.715054;0.710829;0.711030;0.711594;0.715991;0.714584;0.710610;0.714777;0.717576;0.713259;0.712767;0.714945;0.724260;0.721399;0.723516;0.720764;0.725503;0.729278;0.724554;0.729268;0.731462;0.731976;0.735546;0.737192;0.733555;0.738054;0.738725;0.743260;0.742225;0.743310;0.746457;0.741690;0.751106;0.747659;0.752138;0.750833;0.754324;0.754082;0.756567;0.746734;0.756256;0.751720;0.751751;0.753455;0.747386;0.751268;0.748012;0.744731;0.742891;0.737056;0.734274;0.738248;0.731991;0.728290;0.725779;0.723371;0.716376;0.710862;0.710615;0.703122;0.698845;0.696657;0.689326;0.683394;0.675327;0.674313;0.667285;0.665529;0.653880;0.654441;0.640657;0.636790;0.629222;0.625266;0.620960;0.617473;0.605137;0.612211;0.601624;0.595497;0.590694;0.583279;0.579118;0.576106;0.570821;0.565848;0.561562;0.552851
0.548882;0.548608;0.554668;0.559590;0.560915;0.564493;0.569793;0.565545;0.576385;0.581657;0.584265;0.591177;0.594014;0.602387;0.601877;0.605411;0.609900;0.612620;0.619531;0.625142;0.630323;0.632417;0.633523;0.639692;0.649133;0.645910;0.647681;0.654951;0.656067;0.665294;0.661811;0.668073;0.671025;0.676585;0.679046;0.679626;0.679144;0.680449;0.683381;0.687682;0.687785;0.689138;0.688036;0.691823;0.692550;0.691920;0.691758;0.689891;0.689933;0.692443;0.692001;0.685739;0.687682;0.688228;0.681314;0.685733;0.681555;0.681036;0.673562;0.674185;0.681611;0.674924;0.671694;0.669345;0.670872;0.668083;0.670308;0.664900;0.662505;0.660017;0.660771;0.658470;0.657494;0.658058;0.651028;0.654531;0.652793;0.653801;0.650762;0.654837;0.648977;0.648488;0.646242;0.644369;0.647624;0.644381;0.645067;0.646989;0.650681;0.643016;0.648297;0.647683;0.648782;0.645717;0.653171;0.649974;0.654166;0.646952;0.655358;0.655683;0.657877;0.656687;0.659480;0.663006;0.663038;0.666024;0.667054;0.666356;0.667587;0.665465;0.672735;0.672664;0.675145;0.674347;0.673341;0.683884;0.678576;0.677904;0.682066;0.684607;0.689900;0.687118;0.683230;0.691922;0.689398;0.692806;0.688914;0.692308;0.697572;0.698851;0.701344;0.693645;0.700834;0.695576;0.695535;0.703092;0.704690;0.698872;0.699182;0.701602;0.703297;0.698484;0.701501;0.698925;0.696001;0.702067;0.698200;0.699839;0.697783;0.696140;0.702648;0.692663;0.694110;0.696499;0.688914;0.693120;0.693314;0.686915;0.683378;0.684811;0.678647;0.681255;0.676712;0.675523;0.671960;0.667175;0.668144;0.663769;0.659288;0.653822;0.654491;0.647769;0.641372;0.638218;0.635141;0.633601;0.627949;0.629314;0.619770;0.614378;0.612143;0.608932;0.607787;0.602284;0.600040;0.590874;0.587139;0.583092;0.580847;0.575895;0.575999;0.574738;0.564384;0.563392;0.561803;0.558906;0.559288;0.549536;0.552250;0.546363
0.552892;0.560586;0.561849;0.567409;0.565776;0.572800;0.576538;0.580376;0.589725;0.594330;0.593565;0.597472;0.606294;0.611242;0.619412;0.620908;0.624591;0.630833;0.631775;0.639156;0.646272;0.653594;0.657228;0.663124;0.669134;0.671430;0.678209;0.677326;0.687001;0.692309;0.694071;0.702395;0.707300;0.708202;0.710691;0.716302;0.722448;0.724927;0.727197;0.732063;0.733689;0.730982;0.734236;0.740607;0.737934;0.742656;0.748560;0.743742;0.744058;0.747505;0.744963;0.747689;0.750981;0.754207;0.750105;0.745495;0.750885;0.753671;0.754279;0.752208;0.751089;0.753233;0.753714;0.748501;0.746469;0.744555;0.742084;0.745507;0.747430;0.742489;0.742131;0.747110;0.744341;0.742675;0.742073;0.737335;0.739693;0.737438;0.731188;0.734878;0.729391;0.731118;0.731822;0.724015;0.730507;0.727365;0.724889;0.724685;0.722919;0.720027;0.715110;0.721458;0.715812;0.714815;0.712757;0.710250;0.710033;0.707129;0.706571;0.704991;0.701521;0.700481;0.699766;0.695898;0.696209;0.693222;0.693453;0.696780;0.690101;0.689508;0.685175;0.686375;0.680532;0.680101;0.680670;0.676346;0.674546;0.670229;0.670698;0.672970;0.666784;0.666965;0.670921;0.663877;0.657788;0.655819;0.654357;0.651205;0.653532;0.650798;0.642458;0.645455;0.640653;0.645875;0.634930;0.634142;0.630673;0.632039;0.624752;0.620685;0.620782;0.619600;0.618384;0.616063;0.613006;0.609290;0.605742;0.604295;0.607400;0.601216;0.599769;0.598632;0.591265;0.587751;0.588519;0.585798;0.579098;0.583870;0.575464;0.578304;0.574577;0.569389;0.567108;0.565717;0.564321;0.561086;0.565765;0.559620;0.556677;0.556036;0.546978;0.547942;0.546396;0.550012;0.541535;0.543116;0.541106;0.538999;0.542693;0.537371;0.531656;0.530577;0.533095;0.528609;0.522823;0.523292;0.523306;0.522822;0.529542;0.523163;0.522197;0.518689;0.517617;0.516127;0.518488;0.511997;0.514243;0.511191;0.509911;0.511968
0.519952;0.527428;0.527017;0.527714;0.528436;0.532525;0.535326;0.532338;0.539203;0.537812;0.539984;0.543660;0.547751;0.542256;0.554638;0.553649;0.554231;0.559188;0.559719;0.562447;0.563467;0.563795;0.564575;0.567466;0.575094;0.572464;0.575814;0.574636;0.581414;0.580455;0.584375;0.583898;0.588120;0.584256;0.590767;0.593099;0.592648;0.586186;0.597082;0.594530;0.595369;0.598475;0.596860;0.598377;0.598770;0.598914;0.596432;0.596240;0.595925;0.597923;0.596213;0.598246;0.595813;0.592612;0.595347;0.593920;0.597437;0.593867;0.594244;0.592056;0.596657;0.590329;0.595707;0.587820;0.588863;0.590827;0.588752;0.587785;0.583069;0.589104;0.591389;0.579668;0.582730;0.581224;0.583921;0.584694;0.585390;0.586759;0.582285;0.585715;0.583106;0.586869;0.583144;0.582854;0.582644;0.587996;0.587127;0.591199;0.583460;0.593796;0.588143;0.590056;0.591670;0.594826;0.597439;0.599251;0.602491;0.601271;0.602488;0.607987;0.606577;0.610156;0.612935;0.612682;0.615069;0.623733;0.623351;0.622754;0.631111;0.631896;0.633263;0.640120;0.647132;0.649283;0.650818;0.656658;0.656868;0.658477;0.666915;0.671961;0.679141;0.678482;0.689115;0.688072;0.693468;0.702652;0.709912;0.715669;0.719535;0.725940;0.728701;0.737959;0.741685;0.742737;0.748294;0.756524;0.763616;0.766233;0.771774;0.772736;0.779020;0.789170;0.793736;0.797851;0.801715;0.804941;0.806846;0.810389;0.810447;0.816422;0.820179;0.821112;0.825147;0.827552;0.823433;0.829033;0.825878;0.824854;0.817313;0.824900;0.821016;0.823225;0.817010;0.812448;0.811823;0.804517;0.805844;0.797547;0.797511;0.789309;0.782856;0.779449;0.768902;0.768813;0.758697;0.754315;0.745279;0.739040;0.731840;0.722614;0.719916;0.707236;0.700594;0.694603;0.688075;0.677862;0.671869;0.660863;0.658427;0.651616;0.649426;0.632272;0.631721;0.620505;0.612590;0.612287;0.605154;0.596128;0.591198;0.581055
0.540061;0.547103;0.550156;0.548979;0.560511;0.556103;0.565079;0.565838;0.572098;0.574710;0.575454;0.582938;0.588678;0.593201;0.596894;0.599615;0.603133;0.606389;0.613320;0.618819;0.621705;0.625408;0.628690;0.632379;0.639141;0.641086;0.645397;0.651805;0.654293;0.654968;0.661121;0.666776;0.669470;0.673848;0.679167;0.681421;0.691081;0.688478;0.697571;0.693034;0.695084;0.698821;0.702860;0.708156;0.700452;0.707780;0.714357;0.716762;0.717383;0.719875;0.719772;0.716574;0.721607;0.725872;0.721664;0.730802;0.731608;0.723217;0.731368;0.726436;0.731916;0.729716;0.728970;0.726863;0.729127;0.727844;0.731229;0.726420;0.727599;0.726548;0.726731;0.729642;0.725186;0.721753;0.726385;0.722631;0.717481;0.719597;0.717859;0.712061;0.710858;0.707064;0.705801;0.705409;0.701963;0.697914;0.699346;0.695327;0.694028;0.690547;0.686875;0.679141;0.683962;0.671563;0.675532;0.665191;0.664813;0.662490;0.662843;0.653435;0.652904;0.649336;0.649463;0.642144;0.644163;0.642356;0.636047;0.636407;0.630087;0.632593;0.629332;0.627397;0.625883;0.625072;0.623994;0.626213;0.621357;0.618710;0.619669;0.623574;0.620184;0.621868;0.620260;0.618355;0.620125;0.623218;0.622375;0.625764;0.626057;0.631493;0.632019;0.627157;0.635094;0.634610;0.635340;0.638118;0.641297;0.642230;0.648013;0.648904;0.647783;0.653945;0.655234;0.660698;0.658023;0.658324;0.661952;0.665523;0.669489;0.668486;0.671387;0.673259;0.673255;0.670696;0.673520;0.671583;0.676194;0.676920;0.676166;0.674392;0.670580;0.674063;0.670117;0.668057;0.665727;0.671247;0.665046;0.664632;0.660988;0.656566;0.658499;0.652301;0.650587;0.642093;0.638874;0.639141;0.633099;0.632532;0.625149;0.622375;0.617213;0.622123;0.607844;0.606450;0.603163;0.596470;0.591903;0.592696;0.587067;0.581688;0.580250;0.573933;0.576382;0.567068;0.567389;0.560758;0.559582;0.552903;0.551224;0.549244
0.518824;0.517459;0.514480;0.516754;0.520406;0.521182;0.524906;0.522486;0.525410;0.528692;0.528816;0.529509;0.532978;0.534652;0.536178;0.540747;0.540247;0.539866;0.544460;0.552224;0.551655;0.551188;0.553079;0.553408;0.560394;0.559871;0.563529;0.570779;0.571913;0.571026;0.578209;0.580502;0.584617;0.588463;0.587269;0.594046;0.595728;0.599654;0.614365;0.609470;0.616017;0.623942;0.627848;0.626441;0.633872;0.640884;0.646360;0.646469;0.656065;0.658035;0.667918;0.667430;0.667471;0.679225;0.682858;0.689397;0.691609;0.698642;0.703481;0.709973;0.711497;0.716928;0.724166;0.727709;0.730652;0.738498;0.742402;0.751349;0.747097;0.751337;0.757444;0.762150;0.765167;0.769690;0.771339;0.772706;0.769509;0.777373;0.776800;0.784071;0.787686;0.780775;0.786890;0.782987;0.786962;0.784869;0.782430;0.784072;0.781881;0.783897;0.782417;0.786157;0.780763;0.777099;0.775990;0.778260;0.769447;0.768548;0.765691;0.763475;0.763611;0.762261;0.760724;0.753609;0.754970;0.753851;0.747474;0.747968;0.741012;0.738342;0.737016;0.734925;0.735023;0.724878;0.724813;0.724893;0.715850;0.718834;0.710420;0.712112;0.712785;0.711148;0.710208;0.703970;0.701128;0.696938;0.698147;0.692002;0.689260;0.687046;0.688898;0.684379;0.682578;0.676995;0.679040;0.672512;0.672764;0.673010;0.668533;0.660416;0.667700;0.666607;0.659840;0.658758;0.657473;0.653999;0.656618;0.653768;0.643870;0.646435;0.646127;0.642651;0.639891;0.641380;0.635099;0.636911;0.633702;0.630313;0.622906;0.622287;0.623345;0.617275;0.614646;0.614788;0.611433;0.609595;0.610278;0.603123;0.603906;0.596760;0.599398;0.592945;0.594526;0.591755;0.582432;0.580825;0.575364;0.575667;0.572713;0.569944;0.566813;0.565003;0.557112;0.559144;0.559599;0.551309;0.550601;0.548210;0.544946;0.541787;0.543441;0.538242;0.539452;0.531456;0.532362;0.528018;0.524762;0.527032;0.525708;0.525774
0.519175;0.519950;0.522425;0.524357;0.523533;0.523710;0.524972;0.531580;0.530446;0.530353;0.536783;0.536473;0.537680;0.538286;0.545967;0.542452;0.544496;0.554123;0.551382;0.551463;0.555254;0.558784;0.553700;0.559813;0.560359;0.561005;0.565495;0.567125;0.565783;0.565904;0.569881;0.575383;0.573600;0.574368;0.577515;0.576080;0.579008;0.580202;0.584657;0.582091;0.584405;0.583193;0.588660;0.587364;0.587946;0.592714;0.592276;0.594893;0.591131;0.592217;0.594811;0.597312;0.602071;0.597592;0.600670;0.599423;0.598344;0.604520;0.605168;0.602541;0.604310;0.609064;0.612036;0.609655;0.614915;0.617730;0.622571;0.617760;0.627389;0.630590;0.630436;0.633060;0.639815;0.641699;0.638832;0.655936;0.655689;0.656594;0.659931;0.672075;0.672636;0.678543;0.682691;0.688507;0.692413;0.697712;0.706992;0.711330;0.716641;0.724947;0.730972;0.736644;0.744872;0.750098;0.760026;0.771062;0.774589;0.775043;0.783331;0.795439;0.795039;0.806993;0.808985;0.815983;0.821176;0.826966;0.831949;0.838250;0.842925;0.847275;0.853457;0.860728;0.859327;0.862016;0.864712;0.864807;0.869177;0.867114;0.871516;0.870110;0.869365;0.873351;0.871771;0.868129;0.864831;0.859405;0.853753;0.854770;0.846770;0.839000;0.841961;0.832283;0.832234;0.818618;0.816463;0.808683;0.797468;0.791424;0.786616;0.780904;0.766209;0.760910;0.755982;0.747597;0.740085;0.727241;0.724195;0.716412;0.708712;0.708103;0.698991;0.683426;0.673869;0.671254;0.657599;0.655823;0.648250;0.641062;0.632238;0.630762;0.624325;0.616426;0.608110;0.611026;0.596859;0.594199;0.585161;0.579657;0.578195;0.576596;0.572728;0.568255;0.565756;0.562962;0.557281;0.553592;0.550639;0.543789;0.547247;0.544235;0.539154;0.533786;0.538154;0.533554;0.527326;0.526533;0.527413;0.528883;0.519988;0.520262;0.520794;0.516483;0.520860;0.518875;0.511598;0.512489;0.512707;0.509234;0.510740;0.503916
0.547889;0.548060;0.553000;0.549148;0.556795;0.559367;0.565828;0.566090;0.568568;0.570591;0.577292;0.586069;0.583181;0.590082;0.597089;0.600098;0.600595;0.608589;0.613328;0.615782;0.620977;0.622291;0.621501;0.627895;0.632748;0.642372;0.642943;0.646506;0.647697;0.656947;0.659694;0.670372;0.665818;0.666315;0.672659;0.678141;0.680825;0.678933;0.683516;0.683826;0.691431;0.688140;0.689642;0.696442;0.696054;0.698479;0.698685;0.699663;0.700877;0.703307;0.704600;0.697832;0.712657;0.699180;0.703340;0.705346;0.706970;0.705748;0.703492;0.701857;0.704322;0.703685;0.706235;0.704409;0.701375;0.703892;0.707340;0.701674;0.701657;0.697427;0.698747;0.699767;0.698714;0.696779;0.697369;0.692570;0.692776;0.692891;0.693886;0.687662;0.693318;0.685574;0.681681;0.682271;0.681301;0.681848;0.680018;0.679453;0.679178;0.677730;0.674453;0.677262;0.675688;0.667168;0.667383;0.669710;0.667803;0.666090;0.666692;0.665949;0.664414;0.658535;0.656798;0.660335;0.657864;0.655144;0.649851;0.654675;0.659255;0.653178;0.654442;0.657467;0.660296;0.654307;0.648641;0.653182;0.653801;0.654356;0.654574;0.650961;0.656770;0.655214;0.659002;0.660417;0.655179;0.656068;0.657628;0.659650;0.662647;0.662422;0.658536;0.662992;0.662633;0.664663;0.667425;0.668200;0.666387;0.670361;0.671661;0.671015;0.677204;0.676506;0.677760;0.672929;0.674217;0.679103;0.680362;0.677136;0.678770;0.677843;0.679268;0.676637;0.676947;0.675380;0.677031;0.674022;0.674276;0.675495;0.672806;0.670656;0.669050;0.666663;0.667712;0.667318;0.665547;0.660278;0.655527;0.658049;0.649945;0.648852;0.646688;0.641994;0.640118;0.636458;0.630546;0.628269;0.627685;0.622932;0.619595;0.612381;0.606126;0.603769;0.603811;0.597086;0.592329;0.594070;0.588728;0.585552;0.582632;0.576960;0.570189;0.570872;0.564324;0.563104;0.563257;0.556695;0.553084;0.549732;0.543266;0.546067
0.582665;0.589248;0.592657;0.599007;0.604799;0.605248;0.617257;0.628122;0.631140;0.636769;0.639051;0.649651;0.650878;0.665749;0.674030;0.679540;0.685328;0.694706;0.703274;0.703836;0.713306;0.720128;0.728935;0.727345;0.739836;0.746480;0.754620;0.758400;0.766602;0.769087;0.774058;0.774356;0.780722;0.785135;0.783580;0.790747;0.790958;0.797723;0.791158;0.795640;0.791709;0.797664;0.796765;0.790602;0.793332;0.787320;0.783842;0.781398;0.782092;0.778929;0.774682;0.769083;0.764274;0.762159;0.755154;0.745696;0.743732;0.738084;0.733907;0.728639;0.721051;0.710283;0.708880;0.704436;0.695225;0.693247;0.688393;0.681216;0.674769;0.673108;0.662865;0.658934;0.657361;0.651987;0.653416;0.646336;0.645075;0.644156;0.638690;0.638421;0.634981;0.633839;0.635454;0.631721;0.634504;0.636469;0.636593;0.630578;0.631016;0.634900;0.639422;0.631274;0.640687;0.642358;0.648267;0.646810;0.651034;0.652130;0.655605;0.659028;0.664641;0.664279;0.670222;0.674338;0.673960;0.680185;0.675053;0.682575;0.686337;0.685465;0.686819;0.689444;0.698976;0.701440;0.696464;0.701747;0.693812;0.700435;0.705205;0.698978;0.700081;0.706298;0.699734;0.698422;0.701225;0.695577;0.693171;0.694104;0.690377;0.685772;0.682275;0.681537;0.682340;0.670834;0.668664;0.663480;0.662258;0.656721;0.653811;0.648754;0.642238;0.640057;0.634198;0.631745;0.628384;0.620547;0.615308;0.610060;0.605410;0.598751;0.594763;0.591147;0.584962;0.582458;0.583124;0.578969;0.575707;0.566978;0.562555;0.561471;0.556794;0.551442;0.549551;0.547857;0.545994;0.545272;0.537761;0.538159;0.535043;0.532663;0.525011;0.525903;0.524476;0.522253;0.526472;0.514110;0.520418;0.516435;0.514104;0.516354;0.511939;0.508204;0.509936;0.506631;0.510215;0.506901;0.504666;0.506171;0.506236;0.502045;0.501216;0.508456;0.503553;0.503926;0.499394;0.500935;0.497724;0.502036;0.500559;0.494556
0.527744;0.530439;0.537011;0.541865;0.537734;0.542606;0.543533;0.550957;0.552848;0.553897;0.558519;0.559349;0.561057;0.569141;0.567902;0.571580;0.577247;0.580925;0.584997;0.592019;0.589736;0.592481;0.594433;0.607994;0.606343;0.610692;0.614709;0.621947;0.623699;0.629409;0.633413;0.640403;0.641190;0.649596;0.647874;0.656774;0.658731;0.671413;0.674430;0.676120;0.687033;0.691151;0.689588;0.696615;0.702485;0.705808;0.711129;0.720144;0.716676;0.726985;0.729786;0.738347;0.740576;0.750058;0.747045;0.756878;0.758016;0.762907;0.772647;0.776656;0.780581;0.782627;0.790465;0.790211;0.797395;0.797985;0.801037;0.801497;0.805950;0.809725;0.813114;0.814174;0.818138;0.813117;0.816041;0.813985;0.821663;0.820987;0.815003;0.815361;0.817217;0.814313;0.812204;0.809734;0.809980;0.805295;0.805055;0.805593;0.796595;0.793506;0.788551;0.782126;0.780189;0.770043;0.764770;0.770335;0.760824;0.755074;0.749619;0.748647;0.739387;0.734742;0.733524;0.721626;0.717109;0.709084;0.712168;0.699057;0.693185;0.688487;0.683136;0.682120;0.669187;0.669939;0.665523;0.659510;0.655553;0.649936;0.647440;0.639790;0.639520;0.630817;0.627094;0.624196;0.619852;0.620386;0.616463;0.612383;0.612062;0.611030;0.608227;0.604464;0.603389;0.601278;0.597501;0.602058;0.597974;0.594954;0.589687;0.597466;0.587920;0.592584;0.588482;0.589025;0.588344;0.584537;0.587391;0.583912;0.583684;0.583143;0.580680;0.579838;0.579019;0.581024;0.579935;0.579156;0.577456;0.573743;0.574744;0.573412;0.571422;0.574636;0.571825;0.570476;0.567064;0.566664;0.563988;0.561447;0.562227;0.558694;0.556006;0.558480;0.554196;0.555571;0.554608;0.547002;0.544761;0.546191;0.543999;0.545730;0.541165;0.537568;0.536381;0.535659;0.526601;0.534475;0.527201;0.526051;0.525393;0.522646;0.520117;0.520297;0.518601;0.517324;0.514211;0.514068;0.513068;0.508913;0.507487;0.507242
0.529765;0.540065;0.539265;0.536548;0.537076;0.538651;0.546192;0.549608;0.553479;0.553239;0.556545;0.562828;0.564092;0.567102;0.570778;0.573117;0.573362;0.580840;0.582688;0.592463;0.594302;0.594643;0.604366;0.602531;0.610104;0.611694;0.618042;0.618209;0.620986;0.628338;0.628575;0.636827;0.641262;0.643226;0.649300;0.651064;0.657113;0.658069;0.661656;0.663020;0.670522;0.675771;0.680234;0.681814;0.687379;0.685964;0.689540;0.695053;0.706606;0.707216;0.702831;0.711282;0.712226;0.711402;0.716814;0.723587;0.723325;0.730424;0.728919;0.733101;0.736326;0.739996;0.745907;0.746766;0.747400;0.747541;0.750108;0.746165;0.752173;0.753867;0.758252;0.756931;0.756664;0.755876;0.760077;0.759058;0.762774;0.761352;0.762429;0.758295;0.757269;0.757563;0.757546;0.753569;0.754294;0.755850;0.748686;0.753708;0.748497;0.750048;0.746456;0.741659;0.741079;0.736897;0.737217;0.732974;0.729666;0.725300;0.721923;0.721697;0.718144;0.716516;0.710087;0.707624;0.703021;0.702634;0.697357;0.697653;0.694971;0.687971;0.688134;0.690658;0.686750;0.682910;0.683753;0.676622;0.674575;0.670587;0.672563;0.664765;0.671170;0.664166;0.667200;0.662530;0.657172;0.658722;0.656400;0.649010;0.649759;0.651586;0.648278;0.649989;0.651406;0.647277;0.647655;0.645574;0.643862;0.646723;0.643648;0.647170;0.641956;0.645535;0.637046;0.640157;0.638026;0.640214;0.638035;0.639273;0.635569;0.637354;0.636839;0.634212;0.633079;0.629833;0.625637;0.627272;0.631275;0.626575;0.626669;0.620111;0.620604;0.624242;0.620165;0.615582;0.611474;0.614300;0.607748;0.610082;0.600569;0.606897;0.602151;0.594270;0.598900;0.592712;0.587407;0.587185;0.585895;0.582254;0.579184;0.573678;0.572799;0.576340;0.569929;0.567617;0.559715;0.560742;0.555006;0.554204;0.550335;0.551343;0.546380;0.544284;0.542537;0.538170;0.534147;0.534804;0.530020;0.528656;0.530404;0.526401
0.509730;0.511541;0.517054;0.512753;0.518198;0.521098;0.514415;0.519861;0.515684;0.518733;0.520971;0.519703;0.522368;0.521949;0.521930;0.529870;0.527698;0.527780;0.531909;0.534331;0.527173;0.536992;0.540061;0.538768;0.537715;0.537490;0.545830;0.541328;0.543501;0.538798;0.543889;0.547002;0.546310;0.542526;0.550447;0.541367;0.548740;0.552225;0.550359;0.551364;0.549701;0.553646;0.548605;0.553236;0.556081;0.555836;0.558434;0.557568;0.554837;0.556116;0.555088;0.554150;0.559371;0.555872;0.559432;0.557976;0.561722;0.565453;0.562311;0.561379;0.564518;0.563058;0.562497;0.568087;0.565226;0.568210;0.567577;0.569721;0.566447;0.570325;0.569937;0.574872;0.572945;0.575871;0.576799;0.582285;0.579103;0.586851;0.586117;0.583741;0.591412;0.592626;0.591577;0.599361;0.598568;0.603181;0.606826;0.608713;0.609772;0.621758;0.615498;0.621241;0.627336;0.630336;0.633843;0.641394;0.644201;0.641508;0.654492;0.656674;0.664148;0.662981;0.666641;0.675777;0.682959;0.684419;0.690610;0.699321;0.698786;0.705980;0.705552;0.713593;0.713726;0.719620;0.722440;0.728933;0.734071;0.735184;0.739662;0.745684;0.747890;0.751852;0.753123;0.764212;0.763207;0.768687;0.767770;0.767545;0.777567;0.779709;0.783516;0.780458;0.786076;0.791764;0.791424;0.800180;0.799064;0.799206;0.802722;0.805708;0.809827;0.807219;0.807578;0.807260;0.808927;0.808195;0.811050;0.812252;0.813414;0.809866;0.811723;0.809413;0.809574;0.812969;0.807718;0.807623;0.797580;0.807042;0.798293;0.797358;0.793154;0.789598;0.787814;0.783592;0.773678;0.770903;0.767744;0.757142;0.751751;0.755111;0.747764;0.739310;0.733538;0.730753;0.722974;0.714547;0.705014;0.701995;0.693333;0.685309;0.680025;0.667263;0.669060;0.660176;0.652879;0.647636;0.636228;0.627427;0.623364;0.621475;0.609434;0.607763;0.602234;0.595508;0.588043;0.583951;0.582924;0.571833;0.569449;0.561217
0.536825;0.541262;0.542428;0.547935;0.553870;0.557807;0.559002;0.560692;0.564766;0.570326;0.574847;0.576247;0.576344;0.584305;0.585433;0.596467;0.596636;0.601334;0.602934;0.610127;0.611574;0.618318;0.621929;0.624506;0.630103;0.635130;0.638283;0.641299;0.644659;0.646113;0.652613;0.658140;0.662246;0.664281;0.669571;0.675059;0.676848;0.683995;0.686253;0.687902;0.691469;0.698370;0.698359;0.701949;0.703252;0.708799;0.713206;0.711236;0.714873;0.711757;0.714990;0.721602;0.718595;0.720811;0.729934;0.730984;0.728231;0.734532;0.735032;0.733586;0.736732;0.734521;0.738302;0.738244;0.737548;0.743606;0.739783;0.742168;0.741972;0.736682;0.738471;0.737449;0.733303;0.737238;0.732249;0.734131;0.727671;0.726031;0.723009;0.722815;0.721599;0.716404;0.720642;0.715502;0.711290;0.710817;0.711695;0.703046;0.699491;0.695741;0.692161;0.693369;0.683700;0.682913;0.677266;0.677583;0.669340;0.665803;0.656944;0.657003;0.649223;0.651320;0.645309;0.646010;0.638473;0.639423;0.629783;0.631740;0.628049;0.623466;0.618308;0.621378;0.618786;0.610741;0.610117;0.613606;0.610906;0.609263;0.607824;0.608487;0.608279;0.608926;0.606328;0.605410;0.609780;0.610656;0.607423;0.613386;0.615591;0.620126;0.618526;0.623671;0.623235;0.629132;0.632909;0.630199;0.630391;0.635109;0.635483;0.640061;0.645326;0.640226;0.649379;0.652034;0.657520;0.658891;0.659878;0.663502;0.660785;0.671264;0.671168;0.666078;0.672064;0.674107;0.674587;0.676513;0.675473;0.682235;0.676787;0.675663;0.676941;0.676030;0.676834;0.671116;0.672435;0.670026;0.674829;0.667192;0.665785;0.664230;0.663037;0.653794;0.654100;0.651847;0.645214;0.644827;0.641392;0.636719;0.631853;0.630745;0.624750;0.620964;0.619516;0.610617;0.612834;0.609020;0.600636;0.595482;0.590856;0.585723;0.581865;0.580389;0.581312;0.572684;0.570745;0.561724;0.559838;0.556792;0.553075;0.550504
0.590688;0.593479;0.596933;0.603718;0.612552;0.619264;0.624186;0.631624;0.638828;0.645570;0.650061;0.663320;0.664792;0.670932;0.676880;0.691299;0.693200;0.703678;0.707939;0.715943;0.727307;0.735242;0.746608;0.748406;0.753596;0.764328;0.767127;0.776380;0.780875;0.787742;0.792195;0.793589;0.799229;0.805683;0.807211;0.807252;0.814467;0.814785;0.820270;0.818595;0.825085;0.822174;0.820446;0.817245;0.817753;0.818643;0.819453;0.811928;0.810800;0.806713;0.802903;0.807728;0.795714;0.793533;0.782789;0.786096;0.778192;0.766509;0.769987;0.760277;0.759557;0.750209;0.744346;0.734012;0.734445;0.726904;0.717799;0.710201;0.713094;0.698657;0.694248;0.688743;0.681062;0.675567;0.673872;0.666324;0.662280;0.656726;0.652346;0.648626;0.643393;0.640624;0.633298;0.634564;0.629494;0.625653;0.627046;0.618728;0.618845;0.618175;0.616982;0.611586;0.613305;0.611840;0.609451;0.613377;0.604295;0.608674;0.604131;0.603380;0.604193;0.601634;0.602408;0.607619;0.604839;0.609549;0.602270;0.607181;0.609784;0.604732;0.608268;0.611648;0.610746;0.607073;0.610645;0.613060;0.610651;0.613902;0.609536;0.612020;0.614842;0.617522;0.613597;0.613018;0.617673;0.615236;0.618724;0.613722;0.613408;0.618703;0.614986;0.620152;0.616569;0.618994;0.616902;0.618384;0.622282;0.619334;0.620677;0.621795;0.622033;0.621778;0.623812;0.620969;0.618966;0.621683;0.620052;0.619555;0.620566;0.617457;0.618776;0.619574;0.610214;0.614655;0.613261;0.612743;0.605880;0.609270;0.611520;0.606962;0.610673;0.606514;0.601634;0.602150;0.600025;0.599022;0.597715;0.594902;0.592069;0.590641;0.590014;0.591801;0.588339;0.582956;0.583088;0.580622;0.576218;0.577495;0.572372;0.568806;0.569834;0.566705;0.560962;0.562864;0.557202;0.560840;0.557099;0.551087;0.551980;0.552710;0.546331;0.545583;0.541523;0.543888;0.545127;0.535037;0.535987;0.536219;0.536772;0.532872
0.500858;0.506498;0.506066;0.507868;0.500864;0.509913;0.506340;0.505740;0.505923;0.504013;0.506651;0.508140;0.508017;0.507529;0.507998;0.507756;0.507973;0.512231;0.516394;0.514875;0.512954;0.515974;0.516946;0.517258;0.520259;0.522246;0.520342;0.520154;0.523620;0.526855;0.525914;0.529258;0.533696;0.536115;0.536615;0.534801;0.535521;0.539562;0.545669;0.547832;0.545416;0.546922;0.555757;0.553765;0.560175;0.564445;0.566566;0.567117;0.572124;0.573311;0.574530;0.579549;0.585155;0.586535;0.588787;0.590880;0.597798;0.597677;0.598181;0.604127;0.610787;0.614599;0.618593;0.619197;0.622417;0.631132;0.632871;0.634897;0.639692;0.631841;0.640574;0.640567;0.646513;0.650977;0.651227;0.657961;0.655332;0.655759;0.664230;0.664962;0.664627;0.666343;0.666041;0.666394;0.674333;0.672884;0.674309;0.677943;0.674264;0.679263;0.684394;0.676933;0.677214;0.681485;0.681725;0.679055;0.682830;0.684731;0.680675;0.687455;0.675921;0.688305;0.687608;0.690110;0.689085;0.686991;0.687664;0.692109;0.687706;0.689856;0.692625;0.695858;0.696727;0.695064;0.693673;0.700379;0.706187;0.701182;0.704438;0.705902;0.715403;0.712613;0.710365;0.716977;0.718714;0.721031;0.730364;0.731222;0.733140;0.731741;0.734924;0.737898;0.743341;0.740849;0.750854;0.747644;0.756260;0.754516;0.760900;0.762671;0.765183;0.768873;0.773429;0.771815;0.776832;0.777508;0.783390;0.782041;0.783740;0.784965;0.783580;0.780646;0.788229;0.783395;0.782540;0.782278;0.782598;0.787900;0.780340;0.776191;0.777214;0.776271;0.772436;0.772047;0.763374;0.757262;0.759838;0.753199;0.757094;0.742849;0.742756;0.739104;0.729753;0.727541;0.718157;0.715808;0.706567;0.699832;0.694231;0.683685;0.681519;0.672647;0.672334;0.660992;0.648931;0.653180;0.643192;0.638772;0.625502;0.622881;0.616679;0.602247;0.602799;0.593487;0.588692;0.594757;0.579967;0.574643;0.574202;0.560319
0.597369;0.603271;0.604743;0.611171;0.619906;0.629926;0.632002;0.644516;0.655770;0.659136;0.669167;0.675428;0.679902;0.693901;0.701078;0.710651;0.723712;0.727618;0.737264;0.743058;0.758101;0.759312;0.769519;0.778779;0.784958;0.792759;0.805002;0.807134;0.817956;0.823084;0.825396;0.834812;0.837939;0.839621;0.854766;0.854876;0.854783;0.862214;0.863625;0.871828;0.872322;0.868672;0.873266;0.873242;0.871866;0.869046;0.870463;0.874163;0.868248;0.870675;0.868113;0.865470;0.858530;0.854696;0.853629;0.851280;0.844842;0.838093;0.837064;0.831715;0.826721;0.823694;0.813696;0.812936;0.804730;0.798919;0.790044;0.783521;0.778631;0.770172;0.765933;0.760086;0.754999;0.750307;0.747078;0.740396;0.729966;0.730836;0.722854;0.713597;0.711771;0.707538;0.701946;0.699073;0.690614;0.692821;0.684445;0.682095;0.672205;0.673089;0.663449;0.662427;0.659658;0.650879;0.657951;0.648857;0.647182;0.642293;0.644352;0.635005;0.632832;0.627599;0.623938;0.621327;0.619621;0.614914;0.611318;0.608969;0.602341;0.609342;0.607073;0.602798;0.593738;0.593975;0.596490;0.593635;0.588832;0.590096;0.591316;0.585164;0.584609;0.579543;0.578221;0.579101;0.574318;0.572338;0.574630;0.572967;0.567393;0.566898;0.570029;0.565613;0.561143;0.562791;0.557922;0.559215;0.555557;0.560070;0.560890;0.551429;0.555658;0.553359;0.553897;0.550066;0.551484;0.545202;0.544476;0.543213;0.544701;0.540936;0.539340;0.538620;0.540913;0.538406;0.537121;0.536928;0.535884;0.533173;0.536799;0.536310;0.530757;0.530872;0.533670;0.531480;0.531469;0.529148;0.527623;0.527199;0.526846;0.531525;0.524932;0.525767;0.531059;0.525082;0.523203;0.521268;0.522872;0.525267;0.519145;0.517473;0.518051;0.518447;0.516987;0.516466;0.516728;0.519296;0.514505;0.520997;0.516384;0.516311;0.517445;0.520950;0.514595;0.511491;0.515305;0.511184;0.514520;0.515071;0.513801;0.508820
0.550027;0.554658;0.559681;0.556825;0.566389;0.569269;0.572347;0.576841;0.578452;0.584617;0.587914;0.591301;0.596369;0.602273;0.603980;0.608585;0.613280;0.621322;0.622822;0.627946;0.633794;0.643079;0.642731;0.644508;0.651388;0.655092;0.658092;0.663756;0.661776;0.671746;0.675737;0.676644;0.683998;0.687015;0.682244;0.688567;0.687266;0.692483;0.692283;0.696958;0.696187;0.695652;0.701623;0.696651;0.696304;0.699445;0.698713;0.698046;0.701172;0.696648;0.696091;0.691385;0.694737;0.689953;0.693777;0.685901;0.686364;0.686544;0.679171;0.682818;0.677656;0.673101;0.672650;0.669797;0.666242;0.659740;0.660271;0.659338;0.643915;0.654395;0.645937;0.648709;0.642856;0.638717;0.633385;0.629551;0.627835;0.622649;0.624022;0.619977;0.617163;0.615448;0.619312;0.609251;0.609396;0.600046;0.603024;0.600937;0.594996;0.589622;0.591481;0.590299;0.590408;0.586421;0.588369;0.580680;0.580338;0.578516;0.577599;0.578621;0.574918;0.575766;0.576052;0.572892;0.573746;0.572485;0.571829;0.570752;0.574418;0.574713;0.571991;0.574371;0.580312;0.576991;0.579512;0.580735;0.586240;0.588735;0.587506;0.595215;0.590157;0.597906;0.601416;0.608546;0.608027;0.616285;0.614241;0.624468;0.625689;0.635137;0.635894;0.642371;0.647037;0.653242;0.658967;0.661689;0.666676;0.673569;0.678825;0.680954;0.689693;0.695529;0.700188;0.704113;0.709388;0.709691;0.717910;0.722495;0.722905;0.729279;0.734495;0.735813;0.738942;0.740602;0.745209;0.747743;0.747593;0.741791;0.746879;0.748901;0.748635;0.743099;0.745467;0.743796;0.736378;0.738746;0.739788;0.739077;0.730204;0.729144;0.718078;0.720591;0.706299;0.710459;0.705589;0.698096;0.694663;0.688068;0.687654;0.681502;0.666865;0.663687;0.661837;0.656019;0.648634;0.644901;0.634664;0.628394;0.622370;0.612894;0.606780;0.605396;0.600842;0.598369;0.592202;0.583563;0.580776;0.570931;0.566834;0.561142
0.521126;0.524031;0.526964;0.526081;0.530149;0.526924;0.529036;0.533142;0.530613;0.531513;0.532421;0.535875;0.538765;0.537831;0.542532;0.547676;0.548111;0.546827;0.553701;0.548542;0.549265;0.553019;0.559522;0.556225;0.559221;0.562787;0.560535;0.563661;0.563328;0.571520;0.568431;0.573368;0.576801;0.570141;0.574958;0.573487;0.575389;0.575384;0.572587;0.579650;0.574415;0.577029;0.577658;0.578278;0.573519;0.575190;0.576958;0.576757;0.575353;0.569971;0.575304;0.577879;0.572846;0.574237;0.571663;0.573016;0.573765;0.573853;0.568678;0.569399;0.570397;0.570446;0.574364;0.573735;0.574450;0.574159;0.578629;0.576269;0.576543;0.580291;0.580396;0.580487;0.578230;0.585208;0.586677;0.592411;0.594854;0.599605;0.605123;0.611395;0.608470;0.615009;0.613859;0.622905;0.634239;0.632403;0.641936;0.646093;0.655735;0.658898;0.666989;0.676941;0.681370;0.690531;0.696107;0.706135;0.714471;0.718463;0.728373;0.731776;0.739991;0.747276;0.754270;0.765417;0.769791;0.776433;0.784249;0.795129;0.796049;0.802543;0.809605;0.817283;0.813904;0.822342;0.826945;0.831193;0.837239;0.837730;0.834951;0.840608;0.843889;0.845449;0.845264;0.846513;0.845379;0.844880;0.845280;0.841920;0.843025;0.837341;0.839461;0.833867;0.833456;0.828074;0.825127;0.826053;0.822396;0.810779;0.811120;0.805382;0.798699;0.795225;0.784863;0.784055;0.777796;0.774090;0.769533;0.760912;0.757052;0.753279;0.743416;0.736836;0.732510;0.729674;0.719640;0.714757;0.708672;0.702573;0.703400;0.691842;0.689005;0.684293;0.675572;0.672559;0.670419;0.661304;0.656581;0.648784;0.645107;0.640907;0.635682;0.630777;0.626340;0.620143;0.612254;0.612351;0.602752;0.601499;0.596366;0.593097;0.591360;0.584435;0.580237;0.580244;0.573767;0.566725;0.565021;0.561463;0.556606;0.553827;0.551503;0.547198;0.541296;0.544078;0.538510;0.538985;0.532860;0.531455;0.526060;0.526517
0.516155;0.518503;0.517568;0.516960;0.516426;0.520404;0.520194;0.528025;0.530325;0.528308;0.526501;0.527118;0.531782;0.530533;0.534530;0.533388;0.536040;0.535243;0.539854;0.544071;0.542578;0.546567;0.545587;0.550666;0.548877;0.551644;0.549653;0.556177;0.554828;0.558925;0.558399;0.558437;0.563887;0.563115;0.566729;0.568447;0.563687;0.570446;0.573211;0.573696;0.574867;0.573832;0.575279;0.576569;0.581391;0.584341;0.577173;0.582120;0.583607;0.587542;0.583813;0.584761;0.586867;0.583046;0.592762;0.589135;0.587161;0.589809;0.591901;0.592686;0.589653;0.596743;0.596909;0.596319;0.598157;0.598128;0.596158;0.598949;0.600099;0.604904;0.604523;0.608129;0.611159;0.616411;0.610811;0.614597;0.618236;0.612578;0.615100;0.620726;0.630289;0.630997;0.628640;0.633366;0.635406;0.634196;0.640815;0.643055;0.646302;0.649377;0.655512;0.657720;0.657826;0.662613;0.670494;0.671158;0.669755;0.675254;0.683887;0.684778;0.686016;0.689408;0.697397;0.698402;0.700388;0.706879;0.708164;0.710290;0.711953;0.715598;0.721144;0.721460;0.731328;0.733561;0.732036;0.738378;0.747692;0.747171;0.746530;0.748602;0.751563;0.750849;0.757377;0.760002;0.756724;0.764762;0.765225;0.773308;0.769209;0.773983;0.772886;0.775941;0.778035;0.780716;0.778434;0.781932;0.783958;0.785971;0.790144;0.785413;0.785053;0.787132;0.789307;0.782684;0.787026;0.787439;0.788484;0.784189;0.786817;0.784806;0.785015;0.780914;0.781603;0.776537;0.776087;0.781537;0.775509;0.773430;0.766361;0.764300;0.759328;0.754939;0.753539;0.754011;0.746508;0.738789;0.741625;0.735037;0.728962;0.726042;0.719873;0.715700;0.706388;0.700422;0.695185;0.694184;0.683582;0.686087;0.673154;0.666037;0.662996;0.658565;0.649432;0.639417;0.638710;0.630958;0.626708;0.624253;0.614874;0.609181;0.605896;0.593183;0.591739;0.593052;0.585991;0.578810;0.578020;0.574540;0.566781;0.557927
0.550527;0.558139;0.560607;0.563830;0.565461;0.573235;0.576609;0.580426;0.582312;0.594213;0.590827;0.601454;0.604473;0.606075;0.614877;0.616025;0.623252;0.625604;0.634143;0.633612;0.639902;0.642227;0.655055;0.653162;0.657345;0.665783;0.667187;0.675569;0.672798;0.677578;0.682041;0.689850;0.687765;0.688029;0.692278;0.696617;0.700989;0.693839;0.702823;0.703398;0.702546;0.702476;0.700202;0.701855;0.702604;0.704450;0.702909;0.697916;0.698900;0.704045;0.693735;0.693806;0.689176;0.692240;0.688618;0.688453;0.684257;0.682215;0.678969;0.674029;0.676058;0.672221;0.665585;0.665177;0.658467;0.660145;0.659165;0.654694;0.651293;0.648769;0.644627;0.645092;0.641877;0.640367;0.636735;0.641070;0.635813;0.634413;0.634149;0.629844;0.634287;0.631350;0.628323;0.627526;0.628405;0.635251;0.629718;0.626673;0.632710;0.630203;0.633705;0.634826;0.633205;0.633306;0.641110;0.639066;0.642236;0.641309;0.639860;0.648760;0.648469;0.645702;0.656099;0.653743;0.654382;0.657785;0.661440;0.662499;0.666673;0.666180;0.671647;0.668746;0.670382;0.673009;0.679448;0.675113;0.679528;0.684243;0.683852;0.687364;0.686793;0.688769;0.691480;0.693844;0.694114;0.694137;0.694916;0.696371;0.693935;0.697960;0.697610;0.699836;0.696107;0.702088;0.696937;0.701551;0.695634;0.699287;0.696007;0.703275;0.696468;0.700405;0.697535;0.692969;0.694482;0.696308;0.692722;0.692666;0.688563;0.692172;0.685425;0.688317;0.686814;0.682117;0.685393;0.681052;0.678295;0.675334;0.672597;0.672423;0.667770;0.664488;0.661399;0.663181;0.659448;0.653963;0.653177;0.648243;0.645434;0.638270;0.634195;0.636196;0.630535;0.623206;0.621643;0.618860;0.617578;0.615131;0.609320;0.602960;0.602453;0.597016;0.593055;0.590015;0.584364;0.577911;0.574914;0.572124;0.570482;0.569716;0.563217;0.561954;0.560565;0.553071;0.554624;0.544386;0.544121;0.542737;0.538282;0.533944
0.577765;0.581812;0.587301;0.592071;0.602979;0.605488;0.610894;0.615624;0.627545;0.630579;0.635448;0.645519;0.654731;0.655125;0.665195;0.675498;0.682048;0.686234;0.690995;0.700401;0.705287;0.715312;0.719789;0.728013;0.736154;0.745814;0.751601;0.756218;0.761682;0.767606;0.777797;0.778180;0.784813;0.784756;0.787023;0.798786;0.795756;0.799370;0.804892;0.807923;0.811759;0.815365;0.815656;0.813764;0.817690;0.814632;0.819581;0.815686;0.812997;0.810260;0.814997;0.812908;0.812447;0.815539;0.809558;0.808058;0.801815;0.803089;0.795625;0.796220;0.790306;0.784107;0.784321;0.776140;0.771377;0.769378;0.766561;0.765042;0.758454;0.752641;0.750876;0.747573;0.739843;0.736338;0.734417;0.729556;0.724874;0.718845;0.718606;0.711064;0.709922;0.697025;0.697147;0.694638;0.686218;0.684280;0.677689;0.674594;0.666781;0.669777;0.662341;0.665362;0.652257;0.651308;0.646284;0.643601;0.640365;0.635660;0.637835;0.631060;0.622496;0.622047;0.621799;0.613616;0.615031;0.608227;0.604852;0.602568;0.602819;0.598468;0.594424;0.595686;0.591554;0.587899;0.584981;0.585755;0.579961;0.583609;0.578966;0.582946;0.576989;0.579168;0.578577;0.577452;0.576065;0.572293;0.574873;0.570583;0.571762;0.570725;0.567878;0.572361;0.570983;0.570745;0.572461;0.570780;0.572510;0.576084;0.576130;0.571400;0.572226;0.571574;0.570403;0.572452;0.574858;0.569725;0.573893;0.573047;0.576486;0.572040;0.566363;0.568826;0.568645;0.574947;0.575208;0.569713;0.569964;0.568445;0.567449;0.572224;0.564330;0.566870;0.568962;0.563395;0.567511;0.567613;0.563798;0.561773;0.561481;0.558200;0.554667;0.556237;0.555264;0.559284;0.547920;0.549946;0.549029;0.544175;0.545930;0.542531;0.545788;0.539731;0.540829;0.534173;0.538431;0.533092;0.530669;0.527763;0.528127;0.525898;0.528808;0.520236;0.519736;0.518427;0.512271;0.512474;0.515263;0.514362;0.513903;0.504633
0.564069;0.568134;0.582228;0.581772;0.590660;0.596687;0.597020;0.603727;0.611601;0.617201;0.621487;0.627584;0.633902;0.633703;0.646959;0.657426;0.658124;0.662832;0.670182;0.673874;0.681434;0.689079;0.695795;0.698013;0.706347;0.709513;0.715923;0.717799;0.722981;0.727238;0.729010;0.737187;0.739007;0.744737;0.745294;0.748196;0.752395;0.753941;0.751675;0.754489;0.752960;0.758425;0.751849;0.752888;0.755722;0.747820;0.748454;0.746608;0.742628;0.741244;0.737357;0.739463;0.733060;0.729917;0.721179;0.718425;0.714252;0.708513;0.699743;0.695999;0.692623;0.692149;0.680608;0.678169;0.669559;0.668933;0.660447;0.652812;0.651715;0.643013;0.642622;0.631621;0.629096;0.624146;0.617326;0.611190;0.606958;0.606060;0.600832;0.593750;0.587327;0.585739;0.585676;0.578187;0.574429;0.570363;0.562658;0.567128;0.562158;0.561309;0.552753;0.555365;0.548355;0.546735;0.551193;0.551788;0.544294;0.545166;0.540426;0.547042;0.545155;0.542524;0.548186;0.542930;0.546016;0.540998;0.540928;0.543723;0.548328;0.546189;0.550204;0.553331;0.549142;0.552403;0.551032;0.556769;0.560237;0.563244;0.571360;0.571335;0.570402;0.573259;0.584027;0.583487;0.586890;0.595550;0.594011;0.599681;0.607737;0.613104;0.621670;0.625645;0.627069;0.636819;0.638451;0.646443;0.651737;0.653699;0.656991;0.664707;0.668870;0.673151;0.679091;0.689200;0.687193;0.694025;0.696674;0.701885;0.706548;0.713057;0.709247;0.714898;0.718010;0.719455;0.717439;0.723351;0.721901;0.722880;0.728373;0.720308;0.725996;0.728147;0.721190;0.723921;0.721869;0.719730;0.718407;0.714043;0.711467;0.711561;0.705698;0.696905;0.697470;0.695426;0.691655;0.684732;0.676349;0.670579;0.673344;0.659377;0.661862;0.652581;0.652230;0.638425;0.635489;0.630778;0.625271;0.618576;0.613352;0.607116;0.602435;0.600713;0.592686;0.594002;0.584195;0.578983;0.574856;0.565729;0.565284;0.564936
0.555432;0.557995;0.559100;0.569944;0.571913;0.575196;0.577402;0.584295;0.585409;0.592839;0.593618;0.602706;0.602671;0.609193;0.616694;0.622495;0.625104;0.634116;0.634716;0.638024;0.647190;0.648940;0.654291;0.661668;0.665202;0.668793;0.672276;0.679301;0.679534;0.680682;0.684321;0.690368;0.695318;0.698589;0.701506;0.706498;0.705342;0.711330;0.707453;0.712005;0.715872;0.715014;0.714778;0.713233;0.716435;0.718990;0.715750;0.718597;0.713676;0.711816;0.713135;0.710240;0.709578;0.706933;0.705114;0.705442;0.705366;0.700583;0.700592;0.697198;0.688564;0.689007;0.684079;0.684335;0.687190;0.676233;0.673764;0.670872;0.664817;0.664617;0.661701;0.658422;0.650405;0.652937;0.654380;0.648286;0.644888;0.640631;0.639883;0.633711;0.634051;0.634654;0.628242;0.632331;0.629439;0.621271;0.623332;0.621087;0.619191;0.616007;0.615836;0.613743;0.613674;0.611575;0.608286;0.608506;0.606031;0.608334;0.607486;0.610746;0.604507;0.604781;0.608927;0.600943;0.608886;0.609376;0.607218;0.609438;0.607471;0.616133;0.608765;0.614802;0.610301;0.616921;0.618428;0.615397;0.619258;0.620592;0.626045;0.628142;0.629112;0.627866;0.632057;0.632196;0.638804;0.640418;0.639410;0.646887;0.651635;0.648620;0.657371;0.655939;0.656878;0.665586;0.669677;0.670263;0.671237;0.673608;0.682813;0.678190;0.687844;0.688022;0.691325;0.695278;0.696832;0.693263;0.702737;0.702687;0.707813;0.708590;0.707404;0.709491;0.710282;0.710504;0.709255;0.715966;0.715282;0.712446;0.711668;0.708266;0.710014;0.707216;0.710080;0.702544;0.705136;0.700123;0.697560;0.694757;0.694668;0.694170;0.683723;0.683304;0.677013;0.677618;0.673723;0.666416;0.663250;0.659829;0.653220;0.643019;0.641381;0.635569;0.636358;0.630187;0.619595;0.622792;0.614041;0.610046;0.605258;0.599939;0.597681;0.594680;0.590675;0.584715;0.578534;0.570630;0.575751;0.569904;0.565380;0.563200
0.586845;0.589830;0.593436;0.602113;0.607623;0.617129;0.623107;0.631541;0.633803;0.639234;0.652603;0.659313;0.663631;0.676867;0.683155;0.688901;0.696240;0.706252;0.716108;0.714774;0.728311;0.736001;0.742605;0.750261;0.754012;0.764175;0.768476;0.774681;0.776613;0.789145;0.789848;0.794241;0.799946;0.805130;0.809599;0.816797;0.812770;0.818354;0.819857;0.812954;0.816368;0.817764;0.819326;0.819004;0.819695;0.817363;0.816044;0.812135;0.815554;0.809102;0.810579;0.801241;0.800283;0.794541;0.783764;0.780256;0.779044;0.768582;0.766359;0.761392;0.754584;0.751700;0.744981;0.742887;0.731005;0.727351;0.719742;0.713677;0.710665;0.706204;0.702140;0.692657;0.686159;0.680550;0.675468;0.674351;0.666697;0.666232;0.653841;0.654465;0.650604;0.649618;0.642297;0.640815;0.639911;0.639099;0.636726;0.637552;0.633560;0.630247;0.628940;0.624333;0.627861;0.625910;0.628085;0.633497;0.620089;0.631981;0.627051;0.622973;0.628867;0.626750;0.626038;0.630068;0.628749;0.625985;0.627283;0.628326;0.632603;0.635034;0.632827;0.631576;0.627785;0.632359;0.630541;0.628866;0.634767;0.634638;0.637626;0.637226;0.635896;0.635930;0.630558;0.631131;0.630523;0.637177;0.636964;0.632169;0.636891;0.630858;0.632542;0.631669;0.623836;0.629935;0.623108;0.627958;0.622634;0.621182;0.622009;0.616765;0.619815;0.616861;0.613121;0.611168;0.612104;0.612818;0.609568;0.607717;0.605827;0.605694;0.605163;0.597709;0.598005;0.599350;0.594482;0.592257;0.588355;0.591446;0.588186;0.582390;0.583231;0.579353;0.581214;0.575979;0.572310;0.571929;0.568787;0.569116;0.570546;0.567454;0.563697;0.566723;0.562343;0.558032;0.556303;0.555687;0.553836;0.553803;0.549749;0.548312;0.549673;0.547484;0.541343;0.545145;0.540065;0.537050;0.540168;0.530059;0.530674;0.530416;0.528815;0.530317;0.529938;0.528663;0.524572;0.526495;0.522902;0.524777;0.520065;0.517906
0.522535;0.524507;0.531236;0.529575;0.528081;0.530856;0.540681;0.532559;0.535827;0.539434;0.541953;0.542895;0.550719;0.548163;0.548742;0.552653;0.555113;0.563141;0.561156;0.566362;0.567695;0.568256;0.571805;0.572443;0.574910;0.577593;0.579794;0.578214;0.589767;0.590620;0.590773;0.595888;0.596500;0.602092;0.601209;0.607486;0.608192;0.608210;0.614442;0.611849;0.617085;0.618999;0.624720;0.624736;0.630218;0.630450;0.634405;0.631679;0.635502;0.637279;0.641526;0.641902;0.645413;0.644871;0.646108;0.648774;0.646329;0.654293;0.657394;0.652676;0.658009;0.656636;0.662108;0.660065;0.664057;0.664146;0.666019;0.668449;0.666310;0.670621;0.668567;0.672798;0.676480;0.672270;0.679668;0.677090;0.679536;0.679927;0.679786;0.685551;0.685785;0.686325;0.687236;0.683639;0.683080;0.684832;0.688047;0.690430;0.691002;0.689039;0.688440;0.688710;0.690165;0.687539;0.692761;0.695348;0.691023;0.691449;0.690615;0.688311;0.693448;0.690747;0.694936;0.697903;0.701482;0.692983;0.696636;0.694887;0.694180;0.702151;0.698702;0.696504;0.699424;0.699240;0.699021;0.698731;0.697662;0.701482;0.707087;0.698590;0.703031;0.699804;0.701780;0.702714;0.703284;0.709330;0.706968;0.705739;0.708089;0.707728;0.707992;0.708033;0.713868;0.708165;0.707451;0.708255;0.714483;0.710861;0.708875;0.712661;0.714850;0.711166;0.713089;0.717649;0.711698;0.715176;0.713289;0.708147;0.706649;0.709984;0.707918;0.710036;0.705131;0.706581;0.705704;0.701404;0.702610;0.698025;0.695452;0.693123;0.695977;0.685345;0.685917;0.684139;0.679750;0.677088;0.673926;0.666400;0.668892;0.661443;0.661838;0.656888;0.652120;0.646627;0.640806;0.632601;0.633354;0.629909;0.625180;0.620140;0.613570;0.610350;0.605561;0.599036;0.596365;0.592633;0.588586;0.586793;0.577171;0.573878;0.575301;0.566475;0.564105;0.560527;0.551946;0.551426;0.545418;0.541765;0.541504;0.538097
0.517213;0.519332;0.515983;0.518880;0.520787;0.527004;0.527945;0.525260;0.531883;0.531766;0.535622;0.533703;0.534483;0.541759;0.543542;0.542993;0.544570;0.550207;0.552632;0.555010;0.559396;0.557638;0.564176;0.566869;0.569388;0.571467;0.575559;0.578821;0.579775;0.583471;0.589936;0.592490;0.595258;0.598288;0.599803;0.608160;0.614907;0.610797;0.620819;0.623629;0.624467;0.629519;0.639977;0.639250;0.643415;0.647850;0.654493;0.657525;0.665704;0.669052;0.675281;0.678749;0.683925;0.689489;0.694631;0.699883;0.706891;0.708353;0.713438;0.717160;0.722113;0.731101;0.734458;0.739911;0.746243;0.747555;0.757819;0.758201;0.756146;0.766176;0.762176;0.770224;0.776889;0.774356;0.779148;0.781579;0.783263;0.780018;0.779739;0.788571;0.783354;0.789175;0.789933;0.791256;0.789790;0.790218;0.791798;0.790799;0.787868;0.786861;0.788515;0.786286;0.782458;0.784590;0.779330;0.775781;0.776180;0.776435;0.771530;0.769823;0.768157;0.762297;0.757899;0.757061;0.757446;0.752606;0.747617;0.744330;0.736803;0.735910;0.732889;0.731399;0.730648;0.729279;0.724740;0.717103;0.719627;0.716453;0.714374;0.706043;0.707400;0.702719;0.705145;0.702141;0.695347;0.692134;0.690489;0.695339;0.685238;0.685035;0.681307;0.678250;0.677810;0.671119;0.675124;0.670514;0.668836;0.667422;0.665723;0.664576;0.661529;0.658089;0.655790;0.655451;0.654640;0.645575;0.646606;0.645669;0.645242;0.641855;0.639033;0.639578;0.634975;0.633102;0.628261;0.631592;0.631375;0.624021;0.621925;0.619796;0.618715;0.616861;0.616079;0.613529;0.607217;0.602796;0.602575;0.599809;0.601111;0.597692;0.595824;0.594626;0.591771;0.587239;0.586489;0.578453;0.578741;0.572382;0.572129;0.569375;0.564506;0.564946;0.560078;0.555219;0.558053;0.555026;0.553212;0.550974;0.543411;0.546836;0.543901;0.543211;0.537663;0.536718;0.532939;0.530850;0.532064;0.524014;0.530737;0.531029
0.529585;0.530661;0.539520;0.538740;0.542494;0.546505;0.548911;0.548587;0.550892;0.555713;0.560355;0.564883;0.558080;0.563482;0.566533;0.570151;0.570006;0.579108;0.577801;0.580991;0.589170;0.584574;0.591693;0.595611;0.600584;0.598026;0.604015;0.606765;0.606857;0.607238;0.609789;0.615444;0.620944;0.622854;0.618974;0.624091;0.624111;0.626290;0.628745;0.629688;0.630335;0.637638;0.633165;0.632366;0.640019;0.637961;0.640065;0.632723;0.635312;0.641099;0.638364;0.637539;0.637970;0.638414;0.642271;0.643837;0.639100;0.641649;0.640623;0.638155;0.643299;0.638822;0.642290;0.641639;0.643865;0.647294;0.644766;0.650517;0.647553;0.651906;0.651713;0.651590;0.654588;0.652475;0.657244;0.658887;0.659754;0.664414;0.670974;0.672151;0.673122;0.678751;0.681571;0.682850;0.680918;0.688687;0.691865;0.693580;0.703928;0.704217;0.714385;0.718392;0.728986;0.729728;0.732127;0.737338;0.743617;0.747347;0.755255;0.758803;0.764676;0.767513;0.776783;0.778878;0.781823;0.782812;0.785391;0.792165;0.799371;0.800086;0.804968;0.803722;0.807594;0.809925;0.812226;0.815736;0.814332;0.816303;0.814046;0.814043;0.816709;0.814409;0.816027;0.812642;0.812060;0.804938;0.807723;0.798685;0.797780;0.800036;0.790808;0.790646;0.784549;0.774044;0.776004;0.768750;0.762146;0.760652;0.755861;0.744792;0.742194;0.734527;0.726311;0.717044;0.718508;0.710034;0.707213;0.694883;0.691900;0.682170;0.679101;0.666333;0.669004;0.663612;0.653333;0.651107;0.644019;0.638154;0.632139;0.625443;0.621306;0.621460;0.611895;0.604094;0.604431;0.600360;0.596343;0.591138;0.582581;0.582162;0.575828;0.573580;0.571606;0.572414;0.569147;0.567220;0.557913;0.562301;0.556780;0.555324;0.547952;0.548778;0.543689;0.540468;0.543861;0.539422;0.534114;0.531810;0.533959;0.530902;0.528379;0.526373;0.528297;0.532648;0.519205;0.522142;0.522881;0.515569;0.523415;0.512603
0.526477;0.527905;0.524974;0.531166;0.535289;0.532183;0.537778;0.540145;0.543630;0.548856;0.545505;0.547141;0.551537;0.557429;0.555644;0.558075;0.559680;0.566051;0.568975;0.573226;0.569315;0.573536;0.583396;0.582559;0.588333;0.585883;0.588178;0.591300;0.596485;0.601299;0.596930;0.599832;0.601631;0.605692;0.604540;0.614429;0.606973;0.610305;0.613733;0.615479;0.618037;0.615661;0.619021;0.618803;0.619973;0.620796;0.625333;0.625683;0.624066;0.626878;0.628632;0.629786;0.629108;0.628189;0.628802;0.634428;0.629520;0.631684;0.634560;0.634104;0.634904;0.637781;0.627604;0.634953;0.632732;0.632730;0.634193;0.635369;0.632688;0.635788;0.635551;0.631740;0.637702;0.643970;0.641542;0.639286;0.650185;0.640880;0.643645;0.645682;0.648787;0.645253;0.645010;0.648969;0.651772;0.650190;0.651042;0.655083;0.661220;0.657786;0.658294;0.662177;0.665015;0.666467;0.666078;0.671821;0.670430;0.668844;0.674204;0.674110;0.680915;0.677846;0.684977;0.687651;0.691103;0.685895;0.698110;0.699109;0.698006;0.703647;0.698247;0.707557;0.706939;0.712385;0.714027;0.715558;0.716206;0.722595;0.722682;0.722931;0.727562;0.728232;0.726364;0.731339;0.731918;0.733904;0.739424;0.738942;0.739217;0.740717;0.743206;0.747531;0.745776;0.745569;0.750906;0.749631;0.751604;0.750064;0.752163;0.754787;0.753720;0.756378;0.756097;0.752026;0.759227;0.753680;0.757802;0.752529;0.755735;0.753167;0.756497;0.754043;0.757602;0.748882;0.748231;0.748239;0.743465;0.749457;0.739668;0.739063;0.731599;0.730987;0.729837;0.726977;0.724762;0.722256;0.711634;0.712594;0.704130;0.701896;0.698716;0.696817;0.693135;0.682515;0.686263;0.676113;0.672365;0.664309;0.664283;0.656778;0.648533;0.643145;0.637486;0.634272;0.631671;0.624205;0.619491;0.610370;0.610245;0.603937;0.600258;0.595276;0.590910;0.586067;0.581743;0.578016;0.577739;0.575334;0.567208;0.565956
0.502444;0.502510;0.501972;0.506841;0.506128;0.507662;0.508766;0.504425;0.506328;0.508389;0.508766;0.506769;0.506325;0.504992;0.514208;0.506934;0.510300;0.510787;0.514005;0.513660;0.518205;0.513759;0.523598;0.518366;0.528494;0.527419;0.529992;0.531570;0.529172;0.533826;0.537902;0.535459;0.540216;0.540137;0.546710;0.547907;0.550386;0.559332;0.558166;0.567345;0.569947;0.572146;0.578387;0.582135;0.585195;0.588665;0.597590;0.595879;0.607705;0.610396;0.617837;0.619981;0.625404;0.631156;0.635881;0.642093;0.646759;0.658425;0.662379;0.667518;0.664828;0.672158;0.681284;0.686905;0.693187;0.698063;0.701815;0.703352;0.713774;0.715329;0.717869;0.721433;0.722526;0.729761;0.736914;0.741302;0.735570;0.741732;0.748233;0.743950;0.747953;0.749009;0.748295;0.751655;0.749193;0.749304;0.749560;0.752595;0.754200;0.749731;0.753749;0.747005;0.749948;0.744377;0.744309;0.744923;0.736689;0.733835;0.734503;0.731759;0.728728;0.730363;0.726223;0.724570;0.719800;0.720884;0.719632;0.715698;0.713134;0.715848;0.716990;0.705079;0.710567;0.705750;0.701465;0.701806;0.699760;0.705345;0.697303;0.699687;0.695531;0.695248;0.700378;0.699962;0.697189;0.695984;0.700635;0.700885;0.696154;0.695037;0.698493;0.698696;0.704009;0.698518;0.702259;0.706214;0.701082;0.706655;0.711916;0.707403;0.704876;0.713932;0.711604;0.714643;0.716271;0.716103;0.717587;0.718471;0.714758;0.719674;0.718223;0.716876;0.714066;0.717167;0.717271;0.715685;0.715412;0.713159;0.711695;0.707895;0.709380;0.704264;0.703725;0.700723;0.699920;0.695621;0.691011;0.696243;0.686097;0.682398;0.677929;0.676442;0.671973;0.667548;0.658679;0.657586;0.650727;0.649587;0.645738;0.639783;0.632397;0.632161;0.627101;0.618562;0.614626;0.612300;0.607594;0.599858;0.595912;0.593047;0.588191;0.579097;0.575880;0.570792;0.566944;0.562086;0.561048;0.554952;0.553256;0.549028
0.506395;0.499891;0.497221;0.502813;0.501242;0.499049;0.503226;0.500056;0.503333;0.505614;0.499821;0.499958;0.502370;0.500204;0.494453;0.502673;0.508807;0.502330;0.504585;0.504087;0.498281;0.502017;0.501202;0.505574;0.504114;0.502806;0.505693;0.507747;0.501330;0.505155;0.505803;0.508028;0.502436;0.506218;0.508768;0.505086;0.507372;0.505953;0.502963;0.503473;0.510938;0.511766;0.507178;0.512593;0.512590;0.515395;0.512908;0.510775;0.515111;0.513743;0.516952;0.511608;0.518583;0.519652;0.520495;0.522620;0.527657;0.524816;0.529999;0.526867;0.533007;0.536158;0.539411;0.545291;0.547121;0.544665;0.558482;0.563171;0.567493;0.569149;0.573111;0.578689;0.589573;0.590948;0.597581;0.605298;0.613192;0.622436;0.626602;0.635843;0.642245;0.653392;0.657644;0.674767;0.680888;0.691372;0.701711;0.714466;0.722187;0.737614;0.742062;0.752576;0.763894;0.781802;0.790734;0.799547;0.813462;0.829566;0.832655;0.847225;0.857758;0.868790;0.877485;0.891094;0.899439;0.907062;0.918979;0.934583;0.941814;0.943555;0.948735;0.958868;0.964693;0.970224;0.980234;0.979842;0.976581;0.983846;0.982563;0.985405;0.987397;0.989080;0.982954;0.984613;0.979294;0.971880;0.973925;0.964898;0.959892;0.957876;0.945536;0.936747;0.932724;0.918323;0.912176;0.897841;0.894490;0.883562;0.872237;0.863137;0.849563;0.839676;0.829113;0.816839;0.803048;0.793732;0.780475;0.771336;0.763630;0.744104;0.736362;0.722994;0.714691;0.699844;0.694370;0.684501;0.672947;0.663379;0.651916;0.645482;0.638923;0.631339;0.624776;0.615659;0.608220;0.606420;0.594237;0.582519;0.579121;0.578639;0.571336;0.568164;0.560013;0.561248;0.552160;0.549791;0.546943;0.540804;0.536337;0.533986;0.528798;0.531274;0.531069;0.526623;0.522578;0.524299;0.520289;0.518085;0.523301;0.516122;0.515062;0.515647;0.507409;0.517403;0.506161;0.511420;0.509347;0.505687;0.507832;0.508254
0.528289;0.531784;0.535549;0.537655;0.538484;0.536803;0.540753;0.541862;0.545776;0.549338;0.548490;0.555414;0.550026;0.562464;0.557827;0.564022;0.567165;0.569556;0.576175;0.576961;0.578112;0.580959;0.585824;0.585257;0.588859;0.583700;0.590736;0.593827;0.595361;0.593828;0.598233;0.597869;0.601892;0.603716;0.602074;0.603953;0.608264;0.604264;0.610415;0.606321;0.606056;0.610009;0.609545;0.607439;0.610180;0.611628;0.609380;0.610707;0.606302;0.604773;0.599800;0.603012;0.603226;0.600473;0.599559;0.594344;0.594412;0.593085;0.591124;0.590673;0.587801;0.589392;0.582391;0.585154;0.583021;0.584879;0.579107;0.574780;0.578116;0.570484;0.567852;0.565351;0.564372;0.561423;0.561861;0.557817;0.557627;0.558115;0.556624;0.554590;0.553786;0.553954;0.550929;0.548241;0.548550;0.547786;0.545079;0.548153;0.549767;0.546507;0.542087;0.543157;0.543997;0.548829;0.545208;0.547524;0.546408;0.551896;0.551140;0.547608;0.549983;0.553779;0.553773;0.551144;0.561646;0.560264;0.566092;0.567708;0.575810;0.574002;0.577272;0.580745;0.586790;0.588548;0.597259;0.604285;0.604819;0.610202;0.615554;0.616471;0.628735;0.635875;0.640753;0.641066;0.653074;0.660740;0.666091;0.679371;0.683688;0.688995;0.701260;0.706672;0.714179;0.721465;0.735948;0.737211;0.744784;0.753482;0.762901;0.772035;0.775967;0.784170;0.799364;0.802773;0.805507;0.811028;0.823433;0.829764;0.824446;0.833880;0.842746;0.850164;0.845931;0.853941;0.856867;0.858041;0.859406;0.861651;0.864181;0.862362;0.856830;0.862428;0.861840;0.857094;0.854032;0.848482;0.846866;0.845337;0.839188;0.837715;0.826290;0.824834;0.808712;0.803033;0.794820;0.790518;0.784556;0.772926;0.768926;0.758892;0.750429;0.744815;0.733697;0.722234;0.716031;0.710113;0.699713;0.692590;0.675496;0.672504;0.664979;0.654450;0.647724;0.639618;0.630412;0.621883;0.615738;0.612646;0.602710;0.600641
0.536650;0.539090;0.543336;0.536994;0.548123;0.542410;0.551256;0.553726;0.553933;0.566055;0.563335;0.564476;0.568569;0.569640;0.578904;0.578348;0.579486;0.584166;0.588808;0.595352;0.600222;0.596718;0.601508;0.602207;0.605057;0.614976;0.612234;0.609975;0.616554;0.623863;0.624356;0.621158;0.629704;0.629479;0.629696;0.631978;0.632141;0.629293;0.630152;0.633908;0.632007;0.630743;0.635638;0.633023;0.638599;0.633804;0.630726;0.637377;0.630433;0.625661;0.625112;0.624650;0.622343;0.626650;0.622532;0.619999;0.617888;0.617500;0.616145;0.612516;0.612043;0.612673;0.611994;0.607313;0.604341;0.601771;0.599832;0.606067;0.600321;0.601222;0.597858;0.599028;0.601522;0.600417;0.598500;0.599806;0.598619;0.598167;0.600861;0.597979;0.594578;0.601856;0.605598;0.610655;0.604497;0.609341;0.605853;0.614090;0.620283;0.621106;0.625559;0.629435;0.631547;0.636117;0.641089;0.642411;0.647519;0.655404;0.659792;0.659346;0.665718;0.670363;0.675390;0.679692;0.687250;0.685576;0.690350;0.698613;0.703306;0.706308;0.706165;0.712253;0.716997;0.723860;0.724659;0.727193;0.735740;0.742088;0.739895;0.742759;0.746776;0.749374;0.751489;0.752861;0.752532;0.755541;0.760924;0.759835;0.764524;0.764192;0.760136;0.764455;0.766440;0.768011;0.768221;0.765996;0.764625;0.761909;0.766714;0.768904;0.766446;0.771515;0.767769;0.765112;0.761979;0.757649;0.762588;0.755089;0.756173;0.758173;0.749910;0.753525;0.751164;0.744548;0.743345;0.742799;0.736738;0.735518;0.732371;0.723625;0.723349;0.724475;0.715398;0.715822;0.708680;0.707389;0.703133;0.692383;0.693775;0.688625;0.684532;0.677285;0.676616;0.672374;0.669916;0.660443;0.649562;0.654292;0.643503;0.635597;0.631883;0.633350;0.624703;0.618388;0.614786;0.609770;0.606834;0.599956;0.597929;0.588554;0.586538;0.584477;0.578717;0.577101;0.568740;0.568457;0.566571;0.561299;0.555313;0.556188
0.520891;0.516414;0.519802;0.521649;0.525187;0.524864;0.522998;0.528240;0.528342;0.531227;0.539038;0.533614;0.535200;0.538363;0.538652;0.543527;0.543765;0.545095;0.547903;0.552912;0.556342;0.555084;0.560498;0.567662;0.561671;0.563173;0.569893;0.570479;0.571751;0.575933;0.576114;0.573954;0.587871;0.584571;0.593371;0.593134;0.597962;0.598108;0.597835;0.603639;0.603882;0.612210;0.613540;0.616386;0.614209;0.618399;0.623347;0.629436;0.629354;0.634521;0.632811;0.639815;0.642470;0.643493;0.650099;0.654371;0.656000;0.661629;0.663341;0.671083;0.671959;0.675437;0.674385;0.685942;0.685758;0.691607;0.698001;0.698348;0.702715;0.709589;0.709362;0.709426;0.714639;0.721527;0.723934;0.729826;0.730627;0.733968;0.740941;0.743388;0.748598;0.755265;0.756536;0.760841;0.764403;0.760872;0.772270;0.778277;0.776174;0.781947;0.778325;0.787991;0.791512;0.796546;0.798748;0.801763;0.801731;0.803550;0.806561;0.811047;0.813661;0.819044;0.813642;0.818939;0.819482;0.821017;0.826609;0.828882;0.826535;0.823114;0.828327;0.827797;0.826278;0.825879;0.829570;0.823061;0.818568;0.821325;0.818046;0.819839;0.815407;0.811218;0.810136;0.801616;0.802835;0.798658;0.791932;0.786414;0.784452;0.776696;0.769542;0.764512;0.754607;0.750973;0.744303;0.740917;0.731061;0.719590;0.718359;0.708454;0.705447;0.699977;0.688444;0.686421;0.675046;0.666253;0.663563;0.655192;0.646365;0.640168;0.635987;0.625538;0.623837;0.616730;0.608219;0.602308;0.594627;0.590414;0.585598;0.578793;0.577688;0.571304;0.569462;0.562079;0.561449;0.550133;0.553316;0.542176;0.545235;0.536258;0.537139;0.534578;0.525166;0.525049;0.525962;0.521744;0.514113;0.522021;0.518772;0.514194;0.517136;0.514250;0.510361;0.510123;0.503106;0.507022;0.505661;0.503444;0.498956;0.502823;0.510111;0.499376;0.497864;0.496240;0.499318;0.498868;0.502404;0.498501;0.501218;0.497086
0.505365;0.501589;0.506382;0.506786;0.506954;0.509198;0.508315;0.508714;0.508121;0.510806;0.513213;0.510362;0.511469;0.510104;0.517533;0.512102;0.514044;0.516428;0.523496;0.517703;0.518986;0.520710;0.522735;0.523283;0.522431;0.526751;0.527973;0.529122;0.529903;0.536950;0.532641;0.536314;0.540364;0.542946;0.541746;0.552067;0.550065;0.554340;0.555934;0.558993;0.563121;0.563160;0.564704;0.570995;0.573662;0.576605;0.580141;0.583182;0.586049;0.593519;0.592190;0.602245;0.601827;0.612155;0.607459;0.613058;0.620138;0.626051;0.630977;0.631714;0.635651;0.639991;0.643366;0.650548;0.650934;0.652445;0.659540;0.662041;0.665021;0.665506;0.669597;0.674348;0.678446;0.680481;0.674729;0.679654;0.684658;0.688262;0.687374;0.683838;0.689737;0.686568;0.687495;0.688032;0.683597;0.687878;0.692261;0.689166;0.687032;0.684844;0.688990;0.684162;0.684455;0.677634;0.674578;0.675313;0.680186;0.675595;0.677343;0.670293;0.672399;0.668588;0.666812;0.671804;0.669145;0.668461;0.669891;0.663672;0.665599;0.662078;0.664033;0.666684;0.661519;0.668814;0.665579;0.663407;0.671793;0.668206;0.669862;0.672457;0.674881;0.677209;0.677431;0.684161;0.683269;0.686972;0.689509;0.693111;0.697228;0.699067;0.704915;0.708621;0.713150;0.717207;0.722144;0.724996;0.734554;0.733021;0.739284;0.743401;0.748289;0.752458;0.757948;0.760744;0.765669;0.770265;0.774288;0.775528;0.780333;0.777608;0.783087;0.788848;0.791211;0.789185;0.793281;0.794362;0.795692;0.790178;0.793681;0.792450;0.793704;0.791683;0.787470;0.787491;0.783667;0.778179;0.775425;0.776986;0.768655;0.763923;0.759135;0.758247;0.754098;0.744492;0.739565;0.737726;0.730468;0.726490;0.710348;0.711492;0.704299;0.696126;0.687400;0.678576;0.677441;0.669760;0.665870;0.650366;0.646751;0.638090;0.636556;0.629070;0.623252;0.618090;0.609511;0.605418;0.597015;0.594605;0.583035;0.580621
